-0.012318
0.032277
0.072496
0.102029
0.118720
0.126771
0.130421
0.105373
0.072112
0.026993
-0.015623
-0.064017
-0.097283
-0.128403
-0.165898
-0.176821
-0.176301
-0.146991
-0.113793
-0.059859
-0.010355
0.032619
0.077936
0.110127
0.132320
0.137750
0.145663
0.131165
0.084279
0.048758
0.018347
-0.027151
-0.079009
-0.112788
-0.135034
-0.151741
-0.142090
-0.120123
-0.083620
-0.042179
-0.010556
0.054520
0.113921
0.157738
0.170405
0.155938
0.139870
0.126185
0.107280
0.067869
0.012227
-0.035694
-0.083711
-0.117610
-0.146135
-0.163302
-0.168577
-0.134172
-0.100963
-0.047095
-0.008723
0.044187
0.088376
0.122842
0.145578
0.151326
0.146168
0.121951
0.090835
0.050913
0.012508
-0.035505
-0.088873
-0.123233
-0.144164
-0.138179
-0.136350
-0.120838
-0.085315
-0.048255
0.001867
0.060583
0.107325
0.138081
0.151265
0.164942
0.166820
0.145316
0.110987
0.076909
0.040227
-0.011122
-0.055448
-0.102277
-0.131160
-0.141260
-0.135087
-0.112378
-0.081505
-0.035196
0.007004
0.049746
0.086803
0.139090
0.153534
0.152736
0.145480
0.135440
0.115109
0.064776
0.005564
-0.048699
-0.089195
-0.131789
-0.153012
-0.175981
-0.157037
-0.137910
-0.111347
-0.062033
-0.024867
0.024612
0.074497
0.109161
0.128171
0.126343
0.127334
0.106090
0.083546
0.037303
-0.004586
-0.049124
-0.102857
-0.143211
-0.152920
-0.160288
-0.152359
-0.137073
-0.100371
-0.050936
-0.006871
0.038032
0.087467
0.125554
0.138182
0.152979
0.151814
0.124790
0.097674
0.056467
0.015687
-0.038148
-0.081802
-0.125253
-0.152078
-0.166600
-0.164869
-0.147632
-0.106330
-0.054867
-0.004754
0.050894
0.087175
0.112948
0.141081
0.158521
0.145397
0.114510
0.090183
0.038906
-0.013999
-0.059782
-0.106364
-0.140808
-0.163671
-0.171600
-0.173157
-0.156589
-0.120168
-0.065390
-0.027802
0.012729
0.053541
0.088797
0.120292
0.134871
0.128677
0.101628
0.066698
0.043412
-0.005687
-0.056027
-0.084185
-0.130920
-0.164727
-0.169105
-0.156222
-0.123331
-0.090291
-0.034347
-0.000896
0.029871
0.083233
0.117669
0.142529
0.156733
0.150697
0.124130
0.098677
0.046623
0.004454
-0.030380
-0.086893
-0.138129
-0.164144
-0.156832
-0.150653
-0.126895
-0.098363
-0.052813
-0.007816
0.029562
0.073584
0.101738
0.118404
0.127578
0.131903
0.119496
0.089407
0.040306
0.001763
-0.051061
-0.096326
-0.139535
-0.152979
-0.160140
-0.158453
-0.141167
-0.104390
-0.055894
-0.006707
0.043905
0.091077
0.135441
0.165648
0.170760
0.181915
0.166126
0.127441
0.077239
0.025480
-0.017488
-0.055184
-0.076521
-0.105468
-0.110118
-0.099339
-0.081146
-0.040592
0.002586
0.036615
0.083407
0.117893
0.139478
0.162954
0.170432
0.157283
0.148858
0.119540
0.073622
0.031366
-0.015214
-0.048181
-0.079738
-0.101713
-0.113159
-0.098899
-0.079521
-0.057439
-0.007051
0.049447
0.095850
0.142236
0.185120
0.202129
0.221640
0.210697
0.170563
0.122886
0.071688
0.016449
-0.036982
-0.074077
-0.109007
-0.135175
-0.143495
-0.140150
-0.132455
-0.093231
-0.046087
0.004280
0.044340
0.098884
0.135228
0.151862
0.155866
0.139721
0.119693
0.084695
0.056937
0.016667
-0.034176
-0.075792
-0.115567
-0.135034
-0.154748
-0.140196
-0.125503
-0.087079
-0.047101
-0.008692
0.031691
0.078768
0.119488
0.135557
0.134858
0.129801
0.118614
0.078497
0.030683
-0.033180
-0.084197
-0.123625
-0.149148
-0.166646
-0.182800
-0.184277
-0.153615
-0.119684
-0.077017
-0.032601
0.007934
0.049604
0.080422
0.106755
0.127943
0.136157
0.091788
0.049070
0.023017
-0.026814
-0.067943
-0.123448
-0.163892
-0.180925
-0.188071
-0.171909
-0.151853
-0.113897
-0.074535
-0.030140
0.031337
0.072604
0.107613
0.130866
0.137187
0.132304
0.115861
0.066672
0.027551
-0.020061
-0.061280
-0.106268
-0.133878
-0.149615
-0.163850
-0.176338
-0.166506
-0.133027
-0.076135
-0.028877
0.002840
0.049808
0.094360
0.117072
0.126069
0.117190
0.094554
0.062345
0.013105
-0.024824
-0.085449
-0.136638
-0.171514
-0.181087
-0.180541
-0.169099
-0.130076
-0.084260
-0.036334
0.017613
0.064585
0.126262
0.179247
0.222052
0.240210
0.257431
0.236110
0.212403
0.190395
0.168445
0.137656
0.121116
0.110453
0.119595
0.148518
0.200199
0.242914
0.333552
0.420693
0.473374
0.528469
0.626122
0.694284
0.764591
0.816731
0.850882
0.857418
0.836261
0.813712
0.753007
0.706393
0.654247
0.593981
0.551721
0.507617
0.481013
0.462909
0.424678
0.405181
0.399708
0.386501
0.378827
0.358186
0.331160
0.304911
0.271433
0.235892
0.193275
0.148377
0.086836
0.042543
-0.013198
-0.067467
-0.088948
-0.101034
-0.099394
-0.079813
-0.043799
-0.003875
0.046688
0.091149
0.128198
0.162901
0.164494
0.170034
0.163942
0.147575
0.111625
0.070576
0.022810
-0.004722
-0.057634
-0.100075
-0.117523
-0.131054
-0.128099
-0.102315
-0.071001
-0.035122
0.003331
0.057166
0.099720
0.132263
0.157245
0.173526
0.167170
0.145409
0.104093
0.067909
0.013864
-0.044221
-0.088696
-0.124941
-0.142150
-0.142809
-0.140436
-0.128290
-0.094452
-0.033869
-0.010562
0.027773
0.077298
0.114071
0.143879
0.153725
0.146205
0.118810
0.092947
0.051990
0.001080
-0.041272
-0.086932
-0.112497
-0.138518
-0.149989
-0.133247
-0.102050
-0.063731
-0.026676
0.021301
0.072759
0.117338
0.148376
0.178435
0.184755
0.186021
0.149549
0.122087
0.078965
0.035424
-0.011044
-0.047121
-0.086426
-0.102651
-0.111197
-0.097358
-0.077537
-0.044481
-0.000270
0.037496
0.085545
0.138919
0.170304
0.187128
0.201726
0.198006
0.187170
0.160217
0.105034
0.051438
0.002971
-0.044813
-0.081050
-0.098547
-0.104651
-0.094477
-0.065843
-0.032059
0.008029
0.049894
0.117991
0.176422
0.200665
0.220786
0.235013
0.227290
0.202203
0.169216
0.139659
0.084947
0.048539
0.007935
-0.025743
-0.040763
-0.061793
-0.047921
-0.016254
0.023866
0.062161
0.116399
0.153504
0.211041
0.249258
0.273678
0.275777
0.266878
0.266646
0.238822
0.182718
0.129790
0.085849
0.047784
0.019474
-0.013482
-0.034400
-0.022435
0.015459
0.053740
0.094401
0.137424
0.184865
0.227455
0.259936
0.283053
0.292063
0.293817
0.265716
0.225086
0.169749
0.121584
0.082122
0.033780
0.002700
-0.016948
-0.029931
-0.037649
-0.036428
0.011740
0.053788
0.112017
0.179179
0.222751
0.256865
0.262671
0.279390
0.273322
0.250759
0.216370
0.176615
0.117243
0.068746
0.033695
-0.011544
-0.041831
-0.054920
-0.050953
-0.034380
0.001480
0.039527
0.094100
0.131675
0.176562
0.222659
0.260794
0.257015
0.236439
0.221992
0.181324
0.143686
0.085275
0.026050
-0.015954
-0.054072
-0.089326
-0.106490
-0.093418
-0.070487
-0.024157
0.013366
0.053663
0.100267
0.134692
0.162454
0.187046
0.195065
0.185461
0.158526
0.127605
0.081978
0.026536
-0.038380
-0.075039
-0.108524
-0.124485
-0.135698
-0.132165
-0.116947
-0.066827
-0.024982
0.026662
0.077321
0.120959
0.147637
0.163675
0.169357
0.158849
0.139491
0.101498
0.052421
0.013535
-0.025998
-0.075229
-0.104743
-0.124713
-0.133667
-0.132315
-0.099791
-0.054885
-0.017586
0.019082
0.046444
0.099170
0.132960
0.149845
0.167363
0.162280
0.130793
0.096631
0.051997
0.010998
-0.043421
-0.082287
-0.094166
-0.131660
-0.141677
-0.145628
-0.122885
-0.085572
-0.046024
0.007112
0.047663
0.096559
0.127704
0.167623
0.171043
0.145232
0.121998
0.100768
0.063224
0.021127
-0.031729
-0.074766
-0.101528
-0.123374
-0.127552
-0.116795
-0.096607
-0.078467
-0.036162
0.011907
0.066037
0.110272
0.142389
0.178480
0.196994
0.200342
0.176239
0.133891
0.081410
0.038701
-0.010244
-0.055635
-0.084356
-0.104172
-0.115935
-0.128322
-0.103490
-0.077208
-0.026652
0.026393
0.096437
0.137804
0.160606
0.183292
0.188650
0.137872
0.100094
0.085484
0.059640
0.038845
-0.000571
-0.063791
-0.102468
-0.132632
-0.131085
-0.132853
-0.110017
-0.060359
-0.017903
0.017941
0.057811
0.106698
0.150281
0.181181
0.184975
0.194241
0.157394
0.116814
0.072931
0.019961
-0.031197
-0.063587
-0.098463
-0.155320
-0.155082
-0.143822
-0.102024
-0.074278
-0.033471
0.014521
0.065881
0.117147
0.147049
0.156090
0.169879
0.179336
0.163776
0.138722
0.078428
0.020631
-0.031521
-0.080555
-0.118151
-0.133079
-0.143394
-0.145837
-0.125651
-0.095744
-0.038577
0.023083
0.080930
0.124354
0.143072
0.167579
0.179511
0.167433
0.142332
0.113712
0.063968
0.012198
-0.053961
-0.098213
-0.125069
-0.155893
-0.174345
-0.159115
-0.128993
-0.076904
-0.034456
0.005960
0.051862
0.097912
0.139790
0.165878
0.172599
0.174277
0.143066
0.118181
0.060915
0.015866
-0.033617
-0.062897
-0.107483
-0.139362
-0.151236
-0.142070
-0.116110
-0.080608
-0.041254
-0.001673
0.054489
0.098655
0.130949
0.166073
0.171647
0.168765
0.144007
0.108638
0.068055
0.029672
-0.018095
-0.065005
-0.113352
-0.158916
-0.190255
-0.187385
-0.144531
-0.075613
-0.022198
0.003817
0.048550
0.092783
0.128008
0.152186
0.129937
0.115632
0.116243
0.087907
0.037188
-0.010673
-0.046968
-0.091501
-0.117052
-0.129515
-0.137410
-0.131036
-0.126982
-0.100284
-0.059967
-0.013196
0.044244
0.094133
0.129600
0.153129
0.160884
0.150362
0.127788
0.085862
0.051391
0.010034
-0.032746
-0.079818
-0.128108
-0.148456
-0.139734
-0.122720
-0.102634
-0.079120
-0.030460
0.008496
0.056243
0.104970
0.137474
0.164677
0.174668
0.167813
0.145734
0.102540
0.046169
0.006002
-0.032606
-0.074432
-0.108283
-0.126948
-0.137559
-0.119019
-0.099705
-0.060824
-0.026120
0.015281
0.061376
0.105033
0.145708
0.172359
0.192152
0.191634
0.177011
0.135949
0.089356
0.040174
0.001558
-0.032689
-0.079185
-0.096517
-0.114071
-0.109621
-0.080202
-0.054412
-0.004069
0.061432
0.106167
0.152037
0.186685
0.217974
0.215766
0.215073
0.194043
0.156605
0.113528
0.072505
0.010847
-0.029250
-0.050926
-0.070793
-0.095173
-0.105790
-0.085047
-0.052902
0.003178
0.049789
0.081694
0.118330
0.151702
0.175132
0.179445
0.157822
0.163198
0.143880
0.072777
-0.000693
-0.036915
-0.072285
-0.133394
-0.161414
-0.161740
-0.148331
-0.129636
-0.091465
-0.043419
0.015745
0.080832
0.118775
0.145492
0.166834
0.169465
0.165065
0.124143
0.089031
0.045240
0.000799
-0.044775
-0.096203
-0.136343
-0.146995
-0.160488
-0.163822
-0.130752
-0.074345
-0.049100
0.004496
0.041364
0.081501
0.097548
0.115969
0.123975
0.140045
0.110948
0.077951
0.044982
-0.011005
-0.063287
-0.111847
-0.146678
-0.174781
-0.170586
-0.158766
-0.129510
-0.105109
-0.064251
-0.021323
0.022225
0.060257
0.086964
0.112892
0.133133
0.132493
0.117810
0.077082
0.027848
-0.027277
-0.073894
-0.106966
-0.142918
-0.153458
-0.146860
-0.154773
-0.134480
-0.096194
-0.054922
-0.003886
0.042375
0.082797
0.113453
0.130879
0.141317
0.148360
0.122713
0.087839
0.051814
0.007206
-0.045377
-0.092652
-0.138459
-0.166647
-0.167037
-0.156091
-0.147398
-0.116302
-0.073812
-0.003870
0.050886
0.086347
0.116390
0.129005
0.145660
0.141697
0.134858
0.121763
0.103703
0.065233
0.039824
0.026253
0.000806
-0.025001
-0.027190
-0.013361
0.028742
0.075053
0.139667
0.220552
0.301330
0.366814
0.425533
0.493252
0.533493
0.545048
0.546882
0.556098
0.540673
0.514074
0.495199
0.494836
0.484947
0.496647
0.530707
0.568449
0.614082
0.649642
0.679320
0.742640
0.770284
0.793277
0.808467
0.786939
0.764220
0.706406
0.623171
0.519073
0.421460
0.335159
0.236683
0.145525
0.071112
0.012825
-0.008633
-0.023704
-0.020207
-0.003089
0.021110
0.067950
0.101545
0.129656
0.173910
0.199661
0.212727
0.203093
0.181125
0.136456
0.076144
0.020395
-0.018433
-0.059109
-0.093464
-0.124698
-0.138127
-0.126311
-0.095796
-0.072981
-0.031332
0.026267
0.079783
0.127072
0.150843
0.168224
0.174531
0.169148
0.150881
0.107115
0.066448
0.016316
-0.036214
-0.075510
-0.110593
-0.143529
-0.144735
-0.135110
-0.108928
-0.064134
-0.030889
0.016627
0.058588
0.106246
0.143906
0.166591
0.169422
0.160754
0.131711
0.106492
0.071192
0.023117
-0.035495
-0.075445
-0.121490
-0.133653
-0.138929
-0.134816
-0.113941
-0.077164
-0.043175
0.005640
0.072824
0.116274
0.144692
0.168262
0.177576
0.159698
0.144894
0.123612
0.079450
0.026887
-0.022146
-0.062140
-0.091531
-0.114680
-0.126493
-0.118705
-0.097948
-0.054196
-0.015289
0.036394
0.093327
0.132932
0.160071
0.183577
0.202387
0.193021
0.173514
0.142373
0.102761
0.059880
0.004019
-0.019819
-0.049682
-0.085797
-0.095308
-0.087102
-0.066137
-0.035928
0.015342
0.070821
0.114866
0.159830
0.192939
0.215071
0.231241
0.218816
0.204370
0.175308
0.131731
0.079710
0.021324
-0.022864
-0.052402
-0.074200
-0.077194
-0.052942
-0.026699
0.014144
0.063853
0.111660
0.154688
0.203380
0.236908
0.258869
0.263481
0.251334
0.236146
0.199076
0.152596
0.110424
0.077159
0.036657
0.004170
-0.018765
-0.017805
-0.016987
0.003968
0.032576
0.072811
0.119851
0.170583
0.224915
0.265986
0.297269
0.296988
0.297319
0.273680
0.235121
0.184008
0.138555
0.097814
0.040531
0.011518
-0.017004
-0.015070
-0.014694
0.004937
0.036309
0.075567
0.133292
0.180269
0.218701
0.244919
0.266147
0.279287
0.266600
0.242470
0.212453
0.177053
0.124829
0.067475
0.023770
-0.015864
-0.034157
-0.046990
-0.036190
-0.020228
0.025382
0.052734
0.105879
0.165391
0.207801
0.234494
0.251427
0.261683
0.239405
0.216656
0.178674
0.159638
0.103307
0.045835
-0.018172
-0.047425
-0.071031
-0.077434
-0.070478
-0.036557
-0.004050
0.025983
0.072868
0.131909
0.165641
0.200017
0.226420
0.219837
0.199342
0.189923
0.145917
0.093603
0.044149
0.000116
-0.047057
-0.092823
-0.117843
-0.127439
-0.114814
-0.096854
-0.074660
-0.026423
0.020205
0.066520
0.112601
0.159342
0.181569
0.195286
0.182213
0.150551
0.109655
0.057336
0.012795
-0.028125
-0.075734
-0.102433
-0.126328
-0.134474
-0.132142
-0.118172
-0.090254
-0.042471
0.013447
0.062096
0.102621
0.138086
0.172622
0.181977
0.171816
0.142687
0.102773
0.064614
0.015984
-0.033115
-0.080837
-0.109387
-0.118290
-0.124127
-0.119350
-0.100468
-0.073032
-0.034818
0.026590
0.076750
0.111940
0.144050
0.173114
0.176134
0.161697
0.140571
0.100356
0.048526
0.005373
-0.033126
-0.073994
-0.093435
-0.134014
-0.139375
-0.141603
-0.124267
-0.080933
-0.040619
0.005614
0.043596
0.081633
0.130914
0.158508
0.183753
0.164567
0.139267
0.101507
0.065150
0.003545
-0.035489
-0.080224
-0.104006
-0.127804
-0.136902
-0.136836
-0.114249
-0.074492
-0.019861
0.029690
0.090058
0.131242
0.172095
0.203837
0.190839
0.157775
0.148459
0.102257
0.059423
0.014123
-0.017646
-0.042440
-0.080451
-0.105504
-0.112123
-0.113547
-0.095596
-0.063866
-0.009669
0.026274
0.063024
0.108825
0.145597
0.177452
0.184543
0.169118
0.130406
0.095585
0.053417
0.002997
-0.031698
-0.083016
-0.132219
-0.160920
-0.145924
-0.137406
-0.111682
-0.075966
-0.034024
0.014093
0.061675
0.114300
0.143017
0.159818
0.172473
0.156505
0.143521
0.116702
0.077917
0.025777
-0.022965
-0.067557
-0.099644
-0.130794
-0.126938
-0.115561
-0.105802
-0.078775
-0.021189
0.033245
0.067346
0.133050
0.170917
0.177325
0.183608
0.174227
0.150777
0.104120
0.058026
0.015101
-0.034756
-0.080699
-0.105345
-0.132126
-0.138028
-0.134844
-0.111347
-0.088239
-0.043944
0.013113
0.069561
0.094432
0.125488
0.160246
0.169500
0.165824
0.140214
0.093283
0.038527
-0.010117
-0.057380
-0.099043
-0.123941
-0.151194
-0.165993
-0.159907
-0.137741
-0.099987
-0.058630
-0.007489
0.046466
0.093552
0.127721
0.146983
0.169735
0.163391
0.134223
0.095773
0.051189
0.006026
-0.043422
-0.084520
-0.112034
-0.141769
-0.147317
-0.135228
-0.109672
-0.082058
-0.031129
0.020324
0.086021
0.126304
0.149155
0.144164
0.154472
0.143282
0.113801
0.092162
0.051308
-0.007682
-0.039716
-0.095987
-0.139422
-0.152561
-0.162484
-0.150489
-0.121458
-0.092422
-0.057047
-0.015600
0.032947
0.083383
0.115736
0.143895
0.152829
0.132714
0.118700
0.082070
0.026374
-0.032377
-0.078347
-0.097017
-0.116729
-0.139799
-0.155478
-0.142349
-0.113716
-0.085012
-0.036563
0.015362
0.078539
0.120478
0.149851
0.164481
0.179264
0.173145
0.156923
0.134217
0.079548
0.032921
-0.011397
-0.059296
-0.086248
-0.093322
-0.097175
-0.111375
-0.077759
-0.031225
0.002809
0.042779
0.095769
0.132375
0.159133
0.198651
0.205012
0.195660
0.170095
0.133342
0.087009
0.031239
-0.026735
-0.068591
-0.099105
-0.122262
-0.133438
-0.129808
-0.107618
-0.062106
-0.013729
0.042073
0.092454
0.145326
0.169334
0.198292
0.206317
0.193314
0.171550
0.142737
0.101099
0.060606
0.006562
-0.027842
-0.063497
-0.095315
-0.110331
-0.106701
-0.080081
-0.044659
-0.003056
0.038425
0.081584
0.130004
0.165413
0.180931
0.194574
0.185359
0.148341
0.117233
0.067796
0.018973
-0.037360
-0.085084
-0.118319
-0.140113
-0.152074
-0.146868
-0.124658
-0.094972
-0.041137
-0.013368
0.030003
0.085983
0.116881
0.142258
0.148458
0.130188
0.104560
0.066826
0.031705
-0.014599
-0.063672
-0.110864
-0.168436
-0.190650
-0.188226
-0.161551
-0.128618
-0.098742
-0.071087
-0.028311
0.017239
0.069344
0.096124
0.110516
0.128991
0.128880
0.107199
0.076401
0.033417
-0.016475
-0.061731
-0.113436
-0.137403
-0.162230
-0.173092
-0.159783
-0.151717
-0.108893
-0.063101
-0.006867
0.042300
0.080070
0.108480
0.126848
0.139777
0.132231
0.095934
0.049743
0.018738
-0.026575
-0.076961
-0.121852
-0.162262
-0.176734
-0.178189
-0.177341
-0.142584
-0.100980
-0.063857
-0.024760
0.023863
0.068281
0.093127
0.119757
0.132655
0.123747
0.096683
0.065247
0.021333
-0.030029
-0.076749
-0.125400
-0.158618
-0.172510
-0.171805
-0.164095
-0.150699
-0.115001
-0.067941
-0.006240
0.051015
0.097606
0.136523
0.181253
0.194049
0.188758
0.189245
0.178290
0.150730
0.127970
0.082011
0.055008
0.029722
0.032107
0.039903
0.061919
0.100877
0.165825
0.239890
0.317906
0.408228
0.485222
0.544899
0.595664
0.630553
0.651671
0.660763
0.659990
0.658214
0.663665
0.651289
0.636114
0.619091
0.617899
0.619713
0.624501
0.626781
0.638173
0.654986
0.677932
0.687790
0.689606
0.655938
0.614530
0.554504
0.494720
0.427333
0.344942
0.249097
0.173937
0.094873
0.045960
0.003511
-0.024677
-0.027102
-0.027543
-0.011072
0.012797
0.038331
0.080168
0.127784
0.159278
0.193514
0.209263
0.214315
0.202466
0.183419
0.143539
0.087006
0.043549
-0.014563
-0.052668
-0.096085
-0.131715
-0.138428
-0.135312
-0.112961
-0.090636
-0.035528
0.007288
0.053680
0.101881
0.140553
0.159685
0.159628
0.148486
0.128732
0.087055
0.046618
0.000952
-0.051088
-0.091656
-0.131248
-0.148681
-0.161215
-0.146413
-0.114899
-0.087092
-0.037382
0.010596
0.055499
0.100845
0.142338
0.143277
0.166904
0.165909
0.143877
0.128534
0.089924
0.024877
-0.029916
-0.077668
-0.110156
-0.130681
-0.135965
-0.132133
-0.116259
-0.075592
-0.022102
0.018619
0.070105
0.110312
0.140141
0.165633
0.174944
0.166308
0.139388
0.100090
0.060030
0.009443
-0.036942
-0.075948
-0.111897
-0.136786
-0.136491
-0.126454
-0.099279
-0.066451
-0.009895
0.024793
0.083569
0.131318
0.168033
0.187596
0.194349
0.191034
0.165799
0.132492
0.087947
0.051404
-0.004770
-0.044973
-0.078958
-0.101868
-0.108951
-0.073258
-0.048708
-0.026618
0.014835
0.067931
0.139636
0.179833
0.211466
0.226762
0.235246
0.236233
0.219795
0.184015
0.134650
0.094026
0.039875
-0.011548
-0.040135
-0.069486
-0.079131
-0.054771
-0.011309
0.023602
0.041800
0.083014
0.143931
0.189950
0.228607
0.252199
0.265416
0.253957
0.235186
0.186257
0.155890
0.107178
0.048543
0.007390
-0.021216
-0.037063
-0.040184
-0.028778
0.000978
0.041724
0.093637
0.135772
0.184954
0.229574
0.260197
0.287450
0.282916
0.274192
0.256264
0.226545
0.181375
0.140074
0.090650
0.045087
0.014919
-0.021187
-0.019652
-0.016010
0.002711
0.044897
0.089668
0.131052
0.172554
0.214214
0.260936
0.279974
0.267534
0.253189
0.218726
0.192291
0.148071
0.117200
0.070039
0.016275
-0.023782
-0.048042
-0.059707
-0.061529
-0.038437
-0.003987
0.044443
0.085654
0.132716
0.164735
0.203597
0.231428
0.234583
0.220831
0.200762
0.169593
0.126074
0.068921
0.023467
-0.024884
-0.059648
-0.078643
-0.074593
-0.080739
-0.069239
-0.033393
0.018262
0.070839
0.116191
0.152604
0.186838
0.205074
0.209782
0.190537
0.173457
0.134107
0.090254
0.043565
-0.005406
-0.057122
-0.097228
-0.115846
-0.127732
-0.122021
-0.108626
-0.072842
-0.023531
0.021756
0.064443
0.096351
0.132763
0.159705
0.158960
0.156909
0.130643
0.090050
0.042738
0.000011
-0.047651
-0.089932
-0.130550
-0.149009
-0.147094
-0.134082
-0.118839
-0.075719
-0.037389
0.019640
0.056368
0.095259
0.127428
0.142461
0.157857
0.161516
0.143345
0.102805
0.062937
0.016273
-0.033978
-0.095669
-0.137090
-0.145117
-0.147231
-0.130456
-0.114390
-0.071583
-0.037242
0.005699
0.048430
0.106397
0.139000
0.151101
0.151017
0.144789
0.124222
0.090348
0.048794
0.005625
-0.033959
-0.075407
-0.118376
-0.143878
-0.155819
-0.145862
-0.127826
-0.095052
-0.053445
-0.001724
0.056163
0.095589
0.124148
0.147006
0.163413
0.159494
0.134681
0.106146
0.058524
0.019439
-0.035022
-0.076043
-0.105713
-0.134981
-0.140933
-0.126755
-0.110462
-0.066396
-0.027586
0.023372
0.073118
0.117020
0.157395
0.176610
0.175768
0.167974
0.149249
0.119521
0.075850
0.022827
-0.034869
-0.077691
-0.106317
-0.130576
-0.142066
-0.126904
-0.103009
-0.067738
-0.029469
0.030777
0.079464
0.109586
0.146938
0.162340
0.176610
0.151087
0.135819
0.105330
0.052778
0.000525
-0.044644
-0.083798
-0.121159
-0.147910
-0.136739
-0.129923
-0.109956
-0.084075
-0.021954
0.036127
0.081308
0.117289
0.142807
0.151494
0.163804
0.167514
0.137456
0.106413
0.070492
0.021044
-0.037747
-0.080146
-0.116591
-0.137440
-0.150956
-0.138498
-0.111712
-0.072216
-0.023284
0.028936
0.072398
0.113710
0.141479
0.153044
0.152412
0.145122
0.126509
0.099734
0.052122
0.004487
-0.042577
-0.084619
-0.116124
-0.151780
-0.161319
-0.149395
-0.116494
-0.076101
-0.041215
0.003787
0.053891
0.092502
0.132531
0.152785
0.149045
0.146319
0.122132
0.089504
0.045563
-0.001425
-0.045267
-0.093644
-0.129987
-0.148065
-0.159166
-0.149738
-0.127747
-0.095646
-0.048794
-0.002401
0.047469
0.093781
0.128822
0.151582
0.169922
0.164314
0.133747
0.100188
0.055949
-0.000381
-0.042340
-0.090951
-0.136763
-0.155636
-0.166899
-0.156783
-0.126197
-0.085204
-0.044184
0.003266
0.053968
0.092290
0.112630
0.133938
0.144915
0.128319
0.118778
0.075254
0.033814
-0.018882
-0.063811
-0.106690
-0.131471
-0.139732
-0.153002
-0.151040
-0.134853
-0.096173
-0.058669
0.001212
0.043980
0.093142
0.135575
0.131215
0.137408
0.133931
0.108442
0.070052
0.046993
-0.015458
-0.059131
-0.094602
-0.127908
-0.146602
-0.149568
-0.162057
-0.133140
-0.075773
-0.034641
0.011270
0.053699
0.094284
0.136534
0.161868
0.164477
0.136421
0.104216
0.079740
0.043013
-0.007060
-0.052836
-0.090386
-0.129754
-0.141832
-0.142805
-0.143572
-0.124453
-0.078589
-0.030877
0.014436
0.057621
0.110194
0.147289
0.169516
0.169576
0.161634
0.151248
0.118887
0.074177
0.024116
-0.031732
-0.067079
-0.102291
-0.115452
-0.131745
-0.121360
-0.095411
-0.059290
-0.009684
0.034962
0.085915
0.126585
0.152543
0.170284
0.184237
0.178386
0.163808
0.125062
0.071074
0.022732
-0.015035
-0.055303
-0.082441
-0.084995
-0.095305
-0.078784
-0.052116
-0.015903
0.021622
0.073069
0.114326
0.157594
0.190474
0.207757
0.212230
0.203103
0.179301
0.143290
0.082188
0.029141
-0.014738
-0.063732
-0.104505
-0.126448
-0.125973
-0.132851
-0.115869
-0.078793
-0.047405
0.012012
0.053957
0.101372
0.142905
0.152298
0.150848
0.156649
0.122595
0.094240
0.051896
0.002655
-0.045779
-0.087594
-0.111059
-0.133256
-0.146701
-0.143994
-0.113238
-0.088127
-0.043602
-0.005675
0.042495
0.088717
0.126831
0.142010
0.141657
0.142137
0.118076
0.078051
0.032312
-0.034241
-0.078394
-0.116967
-0.154911
-0.186927
-0.189876
-0.174263
-0.157496
-0.113965
-0.078421
-0.029622
0.017670
0.059215
0.100953
0.123037
0.134194
0.118737
0.091169
0.053411
0.009134
-0.035527
-0.083285
-0.134922
-0.154290
-0.177965
-0.185446
-0.178057
-0.143677
-0.103005
-0.055191
-0.011982
0.035238
0.078415
0.117632
0.135885
0.132450
0.130242
0.105814
0.068181
0.028242
-0.023549
-0.074744
-0.107232
-0.142316
-0.169695
-0.168650
-0.165773
-0.139723
-0.105811
-0.075507
-0.020757
0.035503
0.076860
0.106630
0.120849
0.136092
0.124169
0.096709
0.046051
0.009106
-0.042448
-0.100370
-0.127995
-0.151042
-0.159681
-0.167823
-0.153335
-0.124351
-0.084520
-0.028179
0.034193
0.104479
0.160593
0.212345
0.242689
0.270321
0.279544
0.268011
0.247406
0.217457
0.194296
0.178170
0.153985
0.156904
0.172553
0.204231
0.261894
0.315201
0.366174
0.433874
0.522127
0.600664
0.673982
0.747367
0.818513
0.859336
0.882831
0.892085
0.874808
0.823350
0.763930
0.714301
0.655995
0.591841
0.544823
0.511879
0.485497
0.436751
0.408854
0.380799
0.374678
0.372031
0.370464
0.353179
0.325887
0.305364
0.300577
0.264658
0.223928
0.171028
0.112081
0.054620
-0.010223
-0.050414
-0.064946
-0.068576
-0.071124
-0.045314
-0.017666
0.021200
0.065057
0.096048
0.125546
0.161511
0.187815
0.194041
0.180479
0.156457
0.126022
0.073045
0.019930
-0.023751
-0.057217
-0.091835
-0.115161
-0.122159
-0.116012
-0.085947
-0.048997
-0.013202
0.031490
0.084528
0.124944
0.156955
0.158614
0.145839
0.148290
0.141416
0.108335
0.057834
0.008398
-0.037763
-0.077492
-0.111084
-0.137841
-0.150878
-0.148912
-0.126811
-0.087610
-0.030550
0.011746
0.054242
0.096586
0.125530
0.149722
0.160830
0.165238
0.127170
0.084246
0.049193
0.018734
-0.028202
-0.064706
-0.095726
-0.121643
-0.123492
-0.104153
-0.078891
-0.035356
0.018156
0.056106
0.092371
0.132909
0.170926
0.187122
0.183862
0.176718
0.148615
0.123543
0.083397
0.043485
-0.005552
-0.052753
-0.073105
-0.092559
-0.106300
-0.118737
-0.094532
-0.054311
0.001283
0.056214
0.105715
0.143374
0.168788
0.190339
0.201592
0.198808
0.177121
0.142213
0.102703
0.054999
0.011889
-0.029342
-0.062135
-0.087209
-0.077809
-0.067759
-0.038155
-0.005372
0.021954
0.079316
0.129187
0.176397
0.209809
0.241868
0.243154
0.240116
0.208812
0.174463
0.133461
0.099518
0.044683
0.020998
0.000577
-0.019215
-0.039820
-0.013765
0.022438
0.049174
0.086461
0.133629
0.188439
0.232119
0.256818
0.270543
0.283311
0.281205
0.270920
0.231344
0.188810
0.141852
0.080138
0.043891
0.012985
-0.001117
-0.003222
0.002123
0.031942
0.055240
0.088902
0.139602
0.184288
0.218813
0.247620
0.263342
0.273251
0.279233
0.254469
0.225192
0.180493
0.140087
0.089292
0.043788
0.011274
0.000580
-0.009591
-0.022447
0.006242
0.042793
0.084526
0.136824
0.186165
0.236310
0.256076
0.271876
0.278912
0.264858
0.234372
0.204580
0.155674
0.109243
0.062025
0.016079
-0.014524
-0.019518
-0.024883
-0.022300
0.000442
0.028278
0.067190
0.112928
0.159844
0.188663
0.217969
0.234341
0.239070
0.235472
0.204717
0.157481
0.105221
0.049653
0.000126
-0.037456
-0.074930
-0.085424
-0.097461
-0.090545
-0.061859
-0.029624
0.014775
0.057869
0.102938
0.140576
0.177995
0.193401
0.196001
0.177600
0.147252
0.119623
0.077605
0.040739
-0.000691
-0.045286
-0.087588
-0.084697
-0.095800
-0.097070
-0.092662
-0.055854
-0.001333
0.041925
0.090116
0.134465
0.171008
0.191192
0.182209
0.175901
0.149201
0.119789
0.069072
0.025513
-0.013903
-0.055702
-0.096082
-0.120502
-0.133972
-0.123142
-0.099353
-0.066033
-0.030041
0.015565
0.054827
0.108785
0.146282
0.155683
0.163329
0.150499
0.126901
0.088855
0.034410
0.001325
-0.047262
-0.078239
-0.104088
-0.126331
-0.139971
-0.127656
-0.110489
-0.072037
-0.027338
0.019935
0.081984
0.134305
0.150641
0.179140
0.191015
0.193961
0.162685
0.126944
0.061322
0.000855
-0.026781
-0.055504
-0.072828
-0.092858
-0.110279
-0.086638
-0.052829
-0.031795
0.000260
0.043582
0.091393
0.126441
0.159863
0.177240
0.187625
0.178095
0.153025
0.125641
0.081823
0.034791
-0.016065
-0.053305
-0.094132
-0.104407
-0.114206
-0.110223
-0.093873
-0.060865
-0.009859
0.046279
0.091471
0.136598
0.169766
0.175420
0.168884
0.161501
0.146725
0.109771
0.063943
0.029961
-0.019357
-0.057020
-0.098023
-0.119625
-0.126133
-0.118608
-0.085003
-0.043710
0.004661
0.049868
0.103879
0.136643
0.174878
0.197279
0.200798
0.196046
0.175667
0.128478
0.079964
0.029595
-0.005199
-0.034778
-0.070238
-0.095494
-0.100856
-0.097763
-0.081597
-0.051164
-0.014133
0.028032
0.073982
0.113594
0.147874
0.165731
0.186669
0.171615
0.148613
0.100705
0.046345
0.007117
-0.036399
-0.071578
-0.101207
-0.133492
-0.132481
-0.110936
-0.085758
-0.046283
-0.012303
0.036518
0.086196
0.126326
0.161754
0.170355
0.161019
0.159463
0.152231
0.117991
0.074169
0.031510
-0.018624
-0.068834
-0.091765
-0.106932
-0.130584
-0.116321
-0.100980
-0.054684
-0.004236
0.036722
0.081242
0.133609
0.165071
0.177985
0.187481
0.171369
0.139390
0.103968
0.063086
0.010970
-0.037231
-0.072529
-0.108380
-0.129075
-0.125000
-0.116305
-0.107412
-0.075339
-0.029075
0.015116
0.063970
0.111893
0.146792
0.186178
0.183892
0.157954
0.136718
0.112603
0.050492
-0.017976
-0.055298
-0.093511
-0.119789
-0.139629
-0.145145
-0.125855
-0.099444
-0.067352
-0.019617
0.019751
0.073033
0.120748
0.148608
0.165129
0.164197
0.148331
0.128903
0.096271
0.054543
0.013913
-0.024583
-0.075009
-0.109947
-0.131633
-0.135794
-0.126109
-0.099361
-0.066207
-0.021687
0.029138
0.084176
0.121575
0.141668
0.159311
0.165125
0.147749
0.125335
0.090939
0.053616
0.012302
-0.040104
-0.093119
-0.131311
-0.144562
-0.156039
-0.128330
-0.095399
-0.061795
-0.021735
0.010141
0.061947
0.094017
0.118953
0.148429
0.155130
0.155021
0.130850
0.095458
0.058514
0.010004
-0.033032
-0.067778
-0.114535
-0.146916
-0.145938
-0.145524
-0.110743
-0.072193
-0.029223
0.013273
0.072673
0.113879
0.149845
0.164244
0.178121
0.163133
0.149269
0.118750
0.078903
0.036532
-0.020628
-0.062018
-0.100256
-0.112560
-0.116260
-0.114479
-0.090267
-0.044149
0.012461
0.047418
0.089704
0.134819
0.158874
0.182323
0.203967
0.197073
0.161199
0.117369
0.087376
0.047676
-0.004992
-0.042470
-0.066251
-0.078542
-0.087330
-0.088262
-0.081252
-0.062965
-0.020723
0.033088
0.080994
0.133092
0.182080
0.197475
0.203551
0.193547
0.172244
0.136619
0.101219
0.063521
0.013675
-0.023688
-0.051752
-0.074832
-0.075992
-0.051677
-0.033375
0.001484
0.044063
0.082881
0.129452
0.158808
0.185217
0.206137
0.199175
0.184093
0.164088
0.119628
0.079475
0.034734
-0.024224
-0.079208
-0.118881
-0.137869
-0.134114
-0.125060
-0.105241
-0.056352
-0.017180
0.018655
0.061221
0.097988
0.133568
0.157368
0.162054
0.159399
0.145860
0.098105
0.052259
-0.000320
-0.049472
-0.098193
-0.120591
-0.149468
-0.164784
-0.152905
-0.112369
-0.083296
-0.045002
0.013924
0.052485
0.093148
0.121519
0.147965
0.148344
0.137660
0.113174
0.075192
0.032483
-0.019964
-0.062718
-0.098946
-0.123863
-0.148700
-0.154363
-0.144438
-0.127208
-0.082698
-0.042182
0.002730
0.051602
0.096397
0.123017
0.141624
0.135659
0.131364
0.107368
0.054456
0.028279
-0.009295
-0.061692
-0.101639
-0.133922
-0.163871
-0.159286
-0.152530
-0.132455
-0.093081
-0.063695
-0.020185
0.020494
0.064817
0.092093
0.109175
0.122036
0.124640
0.104411
0.063988
0.007419
-0.037817
-0.068327
-0.110934
-0.131406
-0.153093
-0.156353
-0.138889
-0.111006
-0.074018
-0.041368
0.002178
0.049718
0.079247
0.112003
0.124960
0.136966
0.131201
0.109590
0.082022
0.048071
0.004735
-0.040012
-0.074095
-0.091436
-0.098492
-0.081721
-0.059491
-0.016741
0.036701
0.089345
0.141023
0.199165
0.266562
0.329496
0.364171
0.395105
0.404971
0.417282
0.411251
0.403214
0.382996
0.367116
0.362755
0.358747
0.367400
0.399283
0.449789
0.522884
0.596713
0.659817
0.733357
0.806254
0.874452
0.880667
0.890803
0.904417
0.878548
0.840154
0.773224
0.699375
0.612811
0.496554
0.392495
0.300121
0.232836
0.187707
0.155000
0.117934
0.112915
0.123090
0.160366
0.200676
0.237433
0.266059
0.274245
0.266706
0.250413
0.215850
0.164776
0.108163
0.051863
0.004620
-0.032912
-0.070786
-0.100923
-0.108597
-0.106265
-0.085785
-0.040640
-0.001567
0.040745
0.089507
0.127526
0.146405
0.175517
0.177949
0.173999
0.148533
0.115265
0.064270
0.011163
-0.035507
-0.079588
-0.111755
-0.138524
-0.143677
-0.135581
-0.117479
-0.071562
-0.023691
0.019045
0.052386
0.089405
0.124432
0.155221
0.160177
0.153697
0.135302
0.106023
0.064568
0.018328
-0.023477
-0.065505
-0.102743
-0.115663
-0.132011
-0.123935
-0.104095
-0.065977
-0.013753
0.037623
0.086399
0.128301
0.152634
0.163643
0.176441
0.166379
0.137215
0.110570
0.078150
0.020655
-0.018856
-0.068528
-0.111247
-0.125844
-0.133829
-0.124788
-0.098584
-0.053262
-0.018749
0.017821
0.067872
0.117422
0.152807
0.176722
0.178164
0.177020
0.143924
0.102933
0.073764
0.029543
0.003335
-0.038157
-0.080006
-0.094320
-0.095156
-0.080828
-0.053024
-0.014236
0.023640
0.072432
0.126195
0.175998
0.215200
0.234431
0.236976
0.227885
0.190341
0.156263
0.111376
0.064506
0.027505
-0.017149
-0.034053
-0.060556
-0.063062
-0.057612
-0.040047
0.000541
0.054623
0.092723
0.139245
0.180259
0.211983
0.249332
0.253897
0.243220
0.225900
0.192303
0.147975
0.101698
0.063624
0.021578
0.002100
-0.024644
-0.035635
-0.022756
-0.002233
0.032442
0.078596
0.121525
0.160388
0.201347
0.248816
0.283305
0.292208
0.284228
0.271467
0.231960
0.181803
0.131850
0.100034
0.072612
0.042422
0.008567
-0.010089
-0.007816
0.014656
0.075448
0.120970
0.167204
0.202654
0.230284
0.254414
0.288282
0.296378
0.290904
0.267948
0.224345
0.177163
0.137355
0.088663
0.051395
0.015221
-0.011783
-0.018793
-0.013048
0.012730
0.041651
0.075687
0.110602
0.155901
0.197989
0.235760
0.250514
0.258802
0.245354
0.224329
0.190764
0.141512
0.100678
0.054407
0.018604
-0.017049
-0.040527
-0.061667
-0.055162
-0.038135
0.000964
0.037772
0.087047
0.132719
0.176777
0.209436
0.233438
0.236531
0.221612
0.174180
0.147049
0.099714
0.061360
0.016685
-0.027054
-0.063049
-0.079409
-0.082376
-0.065756
-0.046718
-0.024945
0.016129
0.054283
0.096362
0.140710
0.180434
0.198021
0.194417
0.191700
0.163792
0.128656
0.072778
0.018011
-0.032721
-0.075008
-0.098045
-0.116350
-0.119713
-0.114063
-0.095791
-0.065876
-0.016439
0.028659
0.075313
0.109203
0.149520
0.167037
0.157786
0.146062
0.120675
0.084553
0.049099
0.004452
-0.047295
-0.094607
-0.120404
-0.129959
-0.129548
-0.123269
-0.097493
-0.059569
-0.011819
0.033184
0.070597
0.118070
0.152577
0.168614
0.176229
0.171824
0.144992
0.115200
0.068958
0.030164
-0.020084
-0.059984
-0.098099
-0.116717
-0.117462
-0.119708
-0.108113
-0.070072
-0.018224
0.031156
0.081993
0.117098
0.139671
0.160390
0.168180
0.170507
0.150713
0.118185
0.071996
0.012360
-0.026327
-0.061880
-0.085089
-0.108729
-0.126150
-0.123759
-0.115456
-0.073569
-0.024280
0.027339
0.081212
0.120468
0.156412
0.168491
0.169881
0.172487
0.142694
0.108162
0.060192
0.019259
-0.019792
-0.050131
-0.079163
-0.106403
-0.120979
-0.111067
-0.080736
-0.050616
-0.007412
0.044591
0.088944
0.118812
0.159901
0.173376
0.183064
0.180538
0.144756
0.116135
0.071156
0.035658
-0.003285
-0.044057
-0.074218
-0.102473
-0.105980
-0.100630
-0.084179
-0.052755
-0.010612
0.039865
0.091150
0.139138
0.156889
0.182895
0.197584
0.182832
0.157441
0.115830
0.065490
0.013061
-0.031114
-0.070024
-0.112707
-0.134371
-0.127750
-0.116840
-0.082702
-0.047509
-0.015324
0.031015
0.072814
0.104805
0.146872
0.166741
0.169719
0.170311
0.144944
0.114579
0.084691
0.030629
-0.019749
-0.063895
-0.104111
-0.108067
-0.119143
-0.114748
-0.097316
-0.058662
-0.023164
0.029651
0.073330
0.116475
0.141171
0.166263
0.177447
0.163163
0.143764
0.111417
0.063018
0.019500
-0.024394
-0.070230
-0.105084
-0.121342
-0.123954
-0.115953
-0.101332
-0.073768
-0.027942
0.022442
0.070297
0.105505
0.143760
0.164943
0.162237
0.145493
0.127218
0.087150
0.042444
0.000794
-0.041462
-0.084166
-0.113986
-0.123282
-0.123298
-0.114225
-0.087296
-0.054587
-0.021086
0.013246
0.056355
0.103574
0.129474
0.151557
0.154744
0.138310
0.117098
0.081240
0.055908
0.011522
-0.038984
-0.087425
-0.118065
-0.127027
-0.135123
-0.135845
-0.104153
-0.071797
-0.029585
0.025447
0.069450
0.106095
0.130556
0.153459
0.157292
0.156598
0.129732
0.085993
0.051728
-0.001307
-0.049719
-0.091426
-0.115873
-0.127997
-0.132457
-0.115371
-0.099678
-0.079754
-0.052262
-0.009396
0.038956
0.094537
0.135411
0.149340
0.139888
0.128081
0.122434
0.082959
0.032317
-0.000149
-0.033050
-0.077703
-0.116478
-0.128154
-0.153591
-0.146715
-0.121284
-0.065351
-0.032811
0.000855
0.051262
0.094047
0.139315
0.165561
0.168203
0.165839
0.138651
0.105186
0.048518
0.005894
-0.041433
-0.082762
-0.117723
-0.150499
-0.148012
-0.129335
-0.105583
-0.070871
-0.030896
0.012127
0.063056
0.103637
0.132245
0.152249
0.144356
0.147982
0.118074
0.085610
0.044504
-0.003435
-0.050173
-0.086338
-0.113821
-0.127390
-0.125685
-0.115354
-0.092492
-0.055602
-0.006267
0.027169
0.071003
0.116103
0.159557
0.192348
0.197810
0.189210
0.163340
0.126649
0.086392
0.040765
-0.010544
-0.051696
-0.078793
-0.096994
-0.100386
-0.082816
-0.062972
-0.026739
0.003477
0.056038
0.091941
0.132972
0.160515
0.168855
0.175549
0.175037
0.159726
0.137927
0.107597
0.062650
-0.004633
-0.043749
-0.058978
-0.079791
-0.092880
-0.095267
-0.058662
-0.027681
0.004579
0.041751
0.095378
0.136833
0.158683
0.178680
0.178152
0.172607
0.150987
0.111624
0.067545
0.021550
-0.021616
-0.070037
-0.108839
-0.120244
-0.133683
-0.120931
-0.083599
-0.051399
-0.009852
0.034688
0.071633
0.119693
0.148570
0.159759
0.165078
0.152538
0.129397
0.084050
0.038450
0.000036
-0.041996
-0.082283
-0.114686
-0.136476
-0.149352
-0.146985
-0.131709
-0.107716
-0.064910
-0.021470
0.043666
0.083991
0.112942
0.134223
0.130944
0.120991
0.087558
0.052449
0.016120
-0.024649
-0.068515
-0.110218
-0.142326
-0.145326
-0.152349
-0.148719
-0.130588
-0.096496
-0.061297
-0.012666
0.034813
0.080844
0.106628
0.125537
0.122480
0.112587
0.100766
0.070590
0.014920
-0.026382
-0.068634
-0.114710
-0.140392
-0.159560
-0.165009
-0.162064
-0.137273
-0.103538
-0.066869
-0.019977
0.034266
0.069540
0.098530
0.125531
0.135791
0.119363
0.107361
0.067798
0.022949
-0.031146
-0.073583
-0.115598
-0.145908
-0.164014
-0.175842
-0.169142
-0.152418
-0.118277
-0.071219
-0.021152
0.019493
0.055111
0.084097
0.103675
0.115828
0.115940
0.108744
0.072640
0.039061
0.002001
-0.025104
-0.052172
-0.071633
-0.074174
-0.065405
-0.048499
-0.013997
0.035865
0.096390
0.143698
0.200805
0.260578
0.315580
0.360240
0.400674
0.420548
0.417997
0.412083
0.422983
0.396879
0.370677
0.368004
0.373136
0.364112
0.386517
0.435892
0.495885
0.561376
0.636721
0.715553
0.783989
0.828058
0.857325
0.860998
0.865694
0.842473
0.809294
0.743244
0.653576
0.552470
0.456129
0.341146
0.246419
0.187389
0.132718
0.090522
0.056584
0.060934
0.088455
0.114395
0.141970
0.169574
0.192476
0.210329
0.203918
0.189089
0.166616
0.125281
0.085221
0.042104
0.003730
-0.050758
-0.076762
-0.102763
-0.106278
-0.097847
-0.075942
-0.041256
0.008684
0.050198
0.089924
0.131749
0.166997
0.176304
0.178922
0.166696
0.140205
0.098320
0.060975
0.012462
-0.024942
-0.066416
-0.095478
-0.136005
-0.136276
-0.124111
-0.106152
-0.065095
-0.024452
0.009315
0.044786
0.101171
0.125918
0.136158
0.146455
0.135196
0.108440
0.079440
0.042965
-0.000293
-0.039972
-0.080395
-0.125757
-0.139400
-0.139540
-0.122187
-0.091327
-0.061413
-0.037983
0.004335
0.051340
0.085263
0.131791
0.163466
0.161111
0.143512
0.141259
0.103203
0.065743
0.030986
-0.026654
-0.072403
-0.088766
-0.103140
-0.119368
-0.112909
-0.075556
-0.038230
0.000219
0.047034
0.092866
0.129465
0.166127
0.198352
0.204573
0.191047
0.172863
0.143494
0.082984
0.018202
-0.033940
-0.070232
-0.085049
-0.099943
-0.103493
-0.091325
-0.076935
-0.041027
0.009358
0.050867
0.098907
0.145056
0.186349
0.206350
0.208740
0.192357
0.175125
0.149609
0.101514
0.062552
0.013233
-0.020763
-0.048637
-0.069722
-0.077464
-0.053384
-0.031720
0.004136
0.052234
0.095572
0.149926
0.186871
0.216867
0.240037
0.254284
0.244410
0.234014
0.210909
0.167444
0.119444
0.076981
0.022128
-0.019121
-0.028879
-0.037504
-0.024524
-0.002989
0.027065
0.080656
0.142126
0.177235
0.210177
0.235177
0.253499
0.258624
0.252800
0.245529
0.212249
0.170560
0.128220
0.085345
0.040464
-0.011005
-0.023560
-0.018858
0.002931
0.014827
0.038880
0.088655
0.133307
0.177334
0.213683
0.242529
0.256982
0.271369
0.272905
0.244728
0.214517
0.170065
0.117372
0.079872
0.044140
0.014497
-0.002031
-0.009859
-0.003926
0.016504
0.052910
0.091764
0.134292
0.171905
0.219354
0.256136
0.264407
0.254693
0.241277
0.221621
0.175375
0.139090
0.079992
0.037151
0.004754
-0.032275
-0.058650
-0.071152
-0.068104
-0.035586
0.001312
0.044308
0.088592
0.117452
0.157281
0.182919
0.203366
0.221830
0.205439
0.173006
0.128002
0.076920
0.031035
-0.000171
-0.039856
-0.067814
-0.082829
-0.085901
-0.096777
-0.069879
-0.059331
-0.016220
0.036498
0.075512
0.129813
0.166866
0.179681
0.176385
0.164697
0.141378
0.110487
0.070043
0.021849
-0.019339
-0.075065
-0.108773
-0.137289
-0.138484
-0.121083
-0.094956
-0.070230
-0.036554
0.010264
0.062868
0.106920
0.128883
0.146545
0.164173
0.154564
0.129335
0.090977
0.052230
0.010884
-0.039248
-0.083473
-0.116605
-0.139249
-0.134501
-0.120309
-0.110297
-0.084603
-0.046595
0.007483
0.051587
0.083538
0.107642
0.120700
0.144855
0.145215
0.121919
0.089247
0.042578
-0.001248
-0.033106
-0.080074
-0.110134
-0.125284
-0.130393
-0.121503
-0.099986
-0.067345
-0.026197
0.018597
0.064729
0.115880
0.146926
0.166947
0.172142
0.159144
0.125537
0.086816
0.037826
0.004512
-0.035050
-0.080663
-0.109951
-0.129719
-0.134132
-0.137164
-0.107371
-0.061036
-0.012840
0.024790
0.063081
0.098617
0.138304
0.157380
0.162160
0.156872
0.121349
0.088865
0.056902
0.020097
-0.019943
-0.066103
-0.099541
-0.123584
-0.128297
-0.123195
-0.104918
-0.075056
-0.039190
0.016025
0.065691
0.108385
0.129855
0.149368
0.175834
0.170903
0.143558
0.110570
0.077994
0.028828
-0.022284
-0.052205
-0.085100
-0.101555
-0.105812
-0.107782
-0.091797
-0.065403
-0.030656
0.014628
0.069869
0.112609
0.142364
0.151471
0.162099
0.167386
0.142886
0.103321
0.063229
0.016185
-0.036570
-0.081246
-0.098948
-0.131041
-0.133993
-0.111993
-0.091711
-0.068869
-0.029714
0.003431
0.057609
0.092501
0.122500
0.139065
0.148709
0.141111
0.117294
0.093095
0.050943
0.003580
-0.042188
-0.080518
-0.114500
-0.138088
-0.133515
-0.120753
-0.099280
-0.064403
-0.036074
0.006146
0.052877
0.090088
0.132318
0.149734
0.157294
0.145254
0.121447
0.087537
0.052592
0.006180
-0.050048
-0.084231
-0.123442
-0.146844
-0.149532
-0.132481
-0.112115
-0.083926
-0.042221
0.003693
0.048045
0.086016
0.115660
0.138845
0.141489
0.135277
0.115584
0.090479
0.048161
-0.003201
-0.043374
-0.079922
-0.105464
-0.137783
-0.132735
-0.134312
-0.117437
-0.099040
-0.058443
-0.011752
0.022204
0.063744
0.102299
0.129328
0.142534
0.146858
0.122898
0.084968
0.043270
0.007573
-0.037500
-0.081397
-0.123412
-0.156140
-0.158286
-0.146017
-0.125488
-0.081769
-0.049708
0.003470
0.056904
0.095596
0.124572
0.141087
0.140965
0.132441
0.121878
0.090226
0.057459
0.013851
-0.040438
-0.089071
-0.121116
-0.144195
-0.152408
-0.149765
-0.123615
-0.089802
-0.045729
-0.000926
0.043546
0.088111
0.127523
0.151472
0.145911
0.143331
0.121869
0.100426
0.064602
0.017074
-0.024860
-0.067253
-0.105525
-0.121061
-0.120262
-0.108683
-0.077478
-0.039079
-0.016371
0.033172
0.082392
0.127452
0.162376
0.178236
0.187159
0.183208
0.147585
0.121065
0.069167
0.015599
-0.030259
-0.069610
-0.096928
-0.108949
-0.122241
-0.114569
-0.074534
-0.033237
0.006946
0.049143
0.102924
0.140283
0.161190
0.174836
0.178942
0.179284
0.152220
0.118179
0.088001
0.052883
0.011375
-0.047451
-0.079096
-0.106605
-0.110732
-0.113393
-0.087335
-0.057204
-0.009041
0.033288
0.076610
0.118203
0.142323
0.157155
0.160609
0.148687
0.128996
0.094362
0.065429
0.019989
-0.036919
-0.073362
-0.102235
-0.119276
-0.130680
-0.133200
-0.106889
-0.072898
-0.044355
0.000065
0.049210
0.091212
0.123021
0.139773
0.137283
0.125336
0.098634
0.068530
0.028335
-0.020132
-0.059773
-0.102749
-0.145920
-0.170533
-0.179530
-0.178812
-0.145219
-0.115343
-0.075657
-0.029822
0.019900
0.050910
0.077707
0.099740
0.095343
0.096722
0.075961
0.046382
0.010379
-0.033499
-0.088542
-0.123215
-0.142592
-0.154688
-0.156006
-0.152719
-0.128059
-0.108880
-0.066967
-0.013056
0.030276
0.063669
0.094329
0.112051
0.126273
0.117263
0.109358
0.079450
0.025442
-0.020040
-0.066148
-0.117410
-0.148266
-0.170808
-0.178768
-0.172509
-0.150309
-0.109752
-0.065548
-0.031990
0.007663
0.050611
0.082339
0.106019
0.116881
0.110672
0.095118
0.064089
0.017839
-0.032382
-0.091281
-0.138770
-0.170343
-0.186695
-0.185234
-0.170319
-0.148220
-0.112214
-0.063901
-0.001353
0.050820
0.118276
0.161163
0.184788
0.206611
0.210222
0.201958
0.195042
0.167336
0.128545
0.095826
0.085713
0.079658
0.073542
0.096130
0.120940
0.168092
0.236678
0.320311
0.388917
0.464400
0.537892
0.593688
0.635913
0.662720
0.701379
0.713803
0.716599
0.719201
0.713660
0.710886
0.669324
0.619467
0.586408
0.589719
0.581081
0.579320
0.579617
0.569751
0.580089
0.564619
0.537911
0.499170
0.454890
0.413668
0.354215
0.315581
0.244454
0.175677
0.115979
0.054391
-0.003081
-0.039633
-0.064528
-0.077030
-0.075956
-0.051561
-0.031330
0.006589
0.058147
0.095820
0.133643
0.159801
0.188309
0.185835
0.172629
0.153665
0.118941
0.072921
0.034276
-0.014980
-0.060290
-0.095292
-0.113058
-0.119014
-0.120213
-0.108082
-0.076487
-0.035061
0.011186
0.057305
0.099823
0.127828
0.160863
0.158825
0.151607
0.122401
0.103202
0.059523
0.006322
-0.033392
-0.084844
-0.120211
-0.151633
-0.157612
-0.149118
-0.124769
-0.097972
-0.056857
-0.007307
0.042420
0.084279
0.123329
0.148868
0.152259
0.155225
0.123949
0.079366
0.051064
0.010980
-0.045633
-0.086011
-0.106450
-0.123252
-0.131392
-0.123381
-0.096072
-0.061305
-0.021003
0.011149
0.058112
0.111687
0.154108
0.169998
0.183910
0.168585
0.143712
0.111867
0.071495
0.022809
-0.023763
-0.062582
-0.085983
-0.111705
-0.125718
-0.105707
-0.083565
-0.047047
-0.007845
0.040082
0.080844
0.130914
0.148835
0.175913
0.187806
0.190054
0.168253
0.153896
0.111988
0.055995
-0.000044
-0.050112
-0.073671
-0.094064
-0.095230
-0.074505
-0.054110
-0.023423
0.019630
0.064992
0.116237
0.162559
0.200741
0.218026
0.229023
0.225773
0.207828
0.169453
0.138182
0.092388
0.043943
0.014431
-0.010707
-0.033011
-0.037180
-0.025485
-0.000009
0.030053
0.071196
0.118561
0.166613
0.203594
0.223562
0.236573
0.242992
0.246254
0.233203
0.192832
0.154422
0.112574
0.066192
0.036537
0.004557
-0.016510
-0.027341
-0.024000
0.011420
0.044696
0.082344
0.132488
0.184175
0.216449
0.248797
0.274777
0.276247
0.261450
0.246627
0.223017
0.182902
0.134204
0.087472
0.054208
0.029518
-0.000829
-0.011121
-0.001998
0.020319
0.052250
0.091135
0.143060
0.186112
0.223795
0.248083
0.257022
0.257619
0.246000
0.232766
0.205356
0.162468
0.105106
0.055674
0.005318
-0.029949
-0.040648
-0.035170
-0.029190
-0.021009
0.022262
0.059448
0.094866
0.134298
0.165304
0.188918
0.205736
0.209375
0.204892
0.182840
0.158458
0.098769
0.055291
0.008090
-0.016588
-0.041606
-0.076274
-0.088613
-0.085810
-0.066241
-0.042136
0.022953
0.065947
0.105493
0.131759
0.158870
0.181608
0.179825
0.171851
0.158291
0.126535
0.080537
0.028983
-0.014639
-0.060350
-0.090831
-0.108135
-0.113682
-0.104062
-0.089839
-0.065997
-0.016183
0.022695
0.074627
0.105316
0.131192
0.140281
0.141303
0.141439
0.118951
0.095550
0.060005
0.004154
-0.046334
-0.079412
-0.114770
-0.140874
-0.144923
-0.125654
-0.109773
-0.083692
-0.041417
0.002193
0.052142
0.088645
0.121446
0.140683
0.157327
0.142410
0.112073
0.080478
0.044887
-0.001321
-0.041655
-0.080133
-0.110151
-0.133292
-0.141022
-0.144331
-0.119582
-0.089900
-0.040747
0.008594
0.054130
0.089122
0.130574
0.136734
0.143978
0.136113
0.115299
0.091606
0.047584
-0.011213
-0.046620
-0.077890
-0.125679
-0.130931
-0.130018
-0.128060
-0.100623
-0.077934
-0.030394
0.010361
0.050863
0.086322
0.119139
0.141620
0.138582
0.136067
0.105864
0.076871
0.045895
0.009933
-0.027276
-0.080387
-0.118332
-0.130398
-0.124330
-0.121546
-0.101053
-0.064605
-0.021387
0.017648
0.058876
0.111698
0.144601
0.154443
0.152953
0.149984
0.128129
0.096906
0.058454
0.008437
-0.032898
-0.069891
-0.100735
-0.110484
-0.124200
-0.113719
-0.082516
-0.068945
-0.040687
0.013075
0.060132
0.109999
0.138200
0.159148
0.170182
0.149832
0.121226
0.089609
0.057591
0.006924
-0.036534
-0.087472
-0.117619
-0.141503
-0.147816
-0.126889
-0.115183
-0.086300
-0.049206
-0.006317
0.053697
0.098000
0.126135
0.135589
0.142019
0.138788
0.127968
0.088904
0.045293
0.005470
-0.037164
-0.078988
-0.116360
-0.131985
-0.141043
-0.132414
-0.101263
-0.074008
-0.030389
0.019889
0.058599
0.098870
0.126921
0.154724
0.158291
0.140913
0.123509
0.081094
0.042495
-0.005547
-0.047861
-0.077851
-0.115672
-0.130018
-0.137088
-0.141791
-0.132701
-0.089955
-0.045900
-0.011873
0.029655
0.075234
0.110030
0.129897
0.139809
0.141783
0.122176
0.082568
0.049534
0.005312
-0.046208
-0.092858
-0.136403
-0.154774
-0.167043
-0.160797
-0.129016
-0.104798
-0.054332
-0.020099
0.024754
0.072315
0.111504
0.129586
0.138874
0.131677
0.099804
0.064382
0.022704
-0.022974
-0.057644
-0.092699
-0.137201
-0.151674
-0.151740
-0.135427
-0.103213
-0.068866
-0.036953
0.002585
0.041762
0.089679
0.105750
0.105997
0.120591
0.125170
0.105815
0.059058
0.005331
-0.036038
-0.083421
-0.107316
-0.144139
-0.156749
-0.153547
-0.139757
-0.111607
-0.079541
-0.045032
0.002473
0.035359
0.074345
0.114047
0.130258
0.139163
0.127948
0.121383
0.093721
0.055594
0.017603
-0.027089
-0.059509
-0.097463
-0.112892
-0.124130
-0.122901
-0.100688
-0.057637
-0.018034
0.032876
0.069374
0.109329
0.143666
0.161276
0.165219
0.159362
0.132122
0.094929
0.065313
0.015512
-0.030260
-0.067006
-0.091977
-0.108425
-0.106981
-0.108598
-0.091120
-0.051999
-0.012152
0.027147
0.063353
0.101349
0.154361
0.173323
0.183064
0.176142
0.155393
0.116364
0.079512
0.031915
-0.016589
-0.056116
-0.094798
-0.111408
-0.119864
-0.110435
-0.092094
-0.066727
-0.023135
0.012407
0.071791
0.113167
0.140297
0.144801
0.146318
0.135491
0.108758
0.080031
0.033434
-0.023964
-0.069063
-0.113650
-0.144948
-0.144160
-0.156937
-0.152914
-0.136662
-0.107373
-0.068154
-0.017918
0.024019
0.063487
0.092963
0.108092
0.102754
0.105364
0.091681
0.057947
0.022679
-0.044418
-0.097514
-0.136334
-0.163480
-0.177844
-0.194772
-0.185340
-0.155411
-0.129132
-0.092847
-0.052205
-0.016020
0.034412
0.068418
0.087034
0.094359
0.085558
0.070684
0.038909
0.000773
-0.037115
-0.080903
-0.133412
-0.158714
-0.180369
-0.182373
-0.191883
-0.176451
-0.131944
-0.089337
-0.037201
0.001957
0.039660
0.075422
0.096389
0.101636
0.093883
0.077048
0.041390
0.003679
-0.041926
-0.083358
-0.118283
-0.156061
-0.189115
-0.195715
-0.185546
-0.184211
-0.150833
-0.109781
-0.055027
-0.000981
0.048504
0.070528
0.088235
0.096833
0.096379
0.067916
0.024808
-0.006383
-0.055002
-0.106219
-0.143373
-0.177755
-0.189440
-0.181509
-0.169071
-0.138164
-0.114337
-0.080376
0.005020
0.066559
0.104680
0.144597
0.182717
0.208249
0.225747
0.220730
0.200135
0.172551
0.139291
0.110269
0.088191
0.082140
0.087732
0.112197
0.141348
0.201195
0.269664
0.346662
0.425984
0.493879
0.564784
0.627575
0.676549
0.720983
0.755381
0.767354
0.771623
0.774481
0.738475
0.704423
0.651328
0.611970
0.586003
0.548401
0.522620
0.521043
0.507442
0.483979
0.457843
0.433287
0.424280
0.410206
0.384855
0.332938
0.281084
0.238646
0.193705
0.134196
0.082500
0.040113
0.002337
-0.027259
-0.052930
-0.076018
-0.084369
-0.062297
-0.039559
-0.003136
0.041946
0.068409
0.111554
0.142076
0.155472
0.156810
0.153844
0.138469
0.108380
0.049363
-0.004332
-0.054028
-0.093145
-0.114099
-0.136212
-0.150438
-0.146748
-0.132762
-0.094879
-0.058045
-0.010889
0.029168
0.059782
0.092822
0.110948
0.118498
0.103772
0.097511
0.069942
0.032706
-0.027766
-0.076971
-0.125932
-0.149100
-0.174103
-0.173550
-0.165941
-0.145237
-0.110992
-0.060263
-0.004803
0.037213
0.076168
0.109059
0.122939
0.139883
0.127162
0.098624
0.061873
0.033948
-0.012244
-0.061249
-0.094975
-0.125919
-0.158422
-0.153915
-0.150801
-0.133885
-0.091638
-0.037026
0.010976
0.050073
0.085559
0.114333
0.139080
0.148806
0.137533
0.108238
0.079569
0.038537
-0.004175
-0.037047
-0.080625
-0.118498
-0.141379
-0.140140
-0.138913
-0.108411
-0.070107
-0.030722
0.013754
0.059956
0.102318
0.144030
0.159491
0.171139
0.168571
0.148427
0.110591
0.067975
0.026613
-0.012958
-0.046367
-0.081160
-0.093270
-0.107417
-0.110941
-0.085289
-0.040767
-0.001623
0.039948
0.091621
0.144054
0.171179
0.184845
0.194682
0.203187
0.171731
0.136425
0.095645
0.064450
0.020688
-0.011144
-0.038724
-0.062326
-0.063266
-0.042944
-0.037411
-0.009000
0.040162
0.081049
0.120608
0.162207
0.194318
0.224862
0.232075
0.222317
0.201422
0.180958
0.137328
0.101967
0.051103
0.018771
-0.013902
-0.031602
-0.040884
-0.036226
-0.011313
0.020011
0.065896
0.117208
0.164018
0.205762
0.222804
0.244054
0.247198
0.239141
0.214604
0.187539
0.148786
0.105336
0.065722
0.026716
-0.003338
-0.028217
-0.039063
-0.033156
-0.015850
0.012912
0.060423
0.103155
0.151804
0.190736
0.209979
0.228203
0.233805
0.226147
0.207419
0.175619
0.137915
0.085696
0.035586
-0.018316
-0.048940
-0.062854
-0.078410
-0.075931
-0.050880
-0.021587
0.021336
0.061517
0.108078
0.139696
0.171487
0.195777
0.201442
0.195180
0.178872
0.136528
0.089090
0.049574
0.011314
-0.043153
-0.083830
-0.110282
-0.127721
-0.129993
-0.097415
-0.059315
-0.001988
0.038444
0.089804
0.114774
0.141287
0.162690
0.163818
0.154173
0.128134
0.097308
0.052761
0.004328
-0.031551
-0.069979
-0.090972
-0.123826
-0.143214
-0.143290
-0.141569
-0.108863
-0.055033
-0.016798
0.033427
0.070794
0.096583
0.114489
0.128313
0.128794
0.096072
0.052871
0.017015
-0.033501
-0.068458
-0.111501
-0.133008
-0.155426
-0.155134
-0.152191
-0.126537
-0.103952
-0.057469
-0.005484
0.025206
0.059331
0.095786
0.109799
0.130351
0.121035
0.105103
0.068197
0.020587
-0.014440
-0.061941
-0.110931
-0.144305
-0.163118
-0.176921
-0.161359
-0.128066
-0.096154
-0.056769
-0.011841
0.026794
0.070112
0.094197
0.117181
0.135120
0.131328
0.108689
0.078490
0.028117
-0.026332
-0.067113
-0.102060
-0.135765
-0.159764
-0.160249
-0.157835
-0.137405
-0.103199
-0.059998
-0.014002
0.027655
0.070035
0.111744
0.136766
0.127670
0.115220
0.100316
0.076437
0.028362
-0.018062
-0.054645
-0.096584
-0.127355
-0.148342
-0.150984
-0.134843
-0.115265
-0.093396
-0.041743
-0.002850
0.039186
0.077061
0.106733
0.123578
0.136546
0.134060
0.112886
0.075281
0.041224
0.011462
-0.030649
-0.076052
-0.111644
-0.137116
-0.158748
-0.146520
-0.115933
-0.096064
-0.053927
-0.003296
0.041435
0.079225
0.112461
0.128438
0.136952
0.138240
0.113044
0.082054
0.032309
-0.010005
-0.056435
-0.105986
-0.125273
-0.147524
-0.156321
-0.148354
-0.129315
-0.103364
-0.055376
-0.006438
0.037764
0.078244
0.112777
0.126501
0.127154
0.112359
0.093750
0.088113
0.049253
0.002745
-0.039604
-0.077878
-0.120241
-0.141753
-0.148708
-0.155901
-0.140016
-0.110333
-0.067504
-0.013828
0.038940
0.083568
0.109647
0.124190
0.130613
0.122250
0.100458
0.073113
0.022340
-0.022731
-0.060884
-0.104320
-0.137691
-0.168533
-0.174385
-0.158300
-0.136227
-0.101109
-0.062421
-0.024511
0.020900
0.058103
0.092434
0.108010
0.116068
0.110279
0.090512
0.059293
0.026232
-0.013113
-0.059726
-0.090544
-0.140543
-0.171722
-0.175872
-0.161153
-0.147866
-0.118201
-0.076148
-0.024919
0.027640
0.063980
0.097456
0.124232
0.133883
0.117693
0.084889
0.058855
0.023957
-0.025000
-0.066676
-0.107850
-0.149021
-0.172747
-0.175931
-0.168421
-0.142718
-0.111113
-0.081234
-0.033473
0.005301
0.059149
0.096148
0.111401
0.120129
0.117205
0.089085
0.059933
0.020885
-0.025729
-0.067643
-0.110869
-0.142540
-0.155322
-0.173609
-0.178865
-0.166963
-0.133551
-0.097315
-0.035041
0.011921
0.050189
0.085280
0.095116
0.117546
0.109240
0.099139
0.055736
0.007403
-0.050107
-0.085064
-0.128457
-0.148002
-0.170928
-0.173120
-0.153800
-0.135654
-0.112838
-0.067619
-0.013110
0.038338
0.074423
0.097803
0.113478
0.127455
0.101307
0.078608
0.061871
0.018215
-0.026369
-0.067337
-0.105480
-0.130499
-0.144484
-0.151263
-0.145511
-0.128825
-0.101024
-0.058616
-0.004304
0.047965
0.089749
0.112338
0.134056
0.138034
0.132712
0.131474
0.093176
0.048552
0.006518
-0.042257
-0.081090
-0.124448
-0.138503
-0.133259
-0.124752
-0.099882
-0.076388
-0.049796
0.002769
0.053949
0.095616
0.127922
0.142935
0.146175
0.138967
0.122937
0.100923
0.066755
0.023987
-0.009753
-0.047074
-0.078620
-0.097170
-0.107450
-0.101594
-0.083398
-0.045107
-0.009098
0.046029
0.092243
0.112283
0.140052
0.146359
0.152852
0.146103
0.113642
0.091563
0.041980
0.000841
-0.036460
-0.091332
-0.128441
-0.136455
-0.158509
-0.160178
-0.134248
-0.103424
-0.063098
-0.022110
0.027330
0.071161
0.097581
0.109108
0.106838
0.109981
0.090611
0.046233
0.011562
-0.025724
-0.073468
-0.111113
-0.146453
-0.166223
-0.170742
-0.169011
-0.152330
-0.121036
-0.077144
-0.037772
-0.000530
0.045064
0.074804
0.097314
0.116425
0.103429
0.080076
0.041455
0.002237
-0.043580
-0.087607
-0.111836
-0.147962
-0.176459
-0.189319
-0.192237
-0.170916
-0.145109
-0.101796
-0.052900
-0.010013
0.029028
0.060242
0.085609
0.087255
0.078627
0.069605
0.047213
-0.004820
-0.063936
-0.110440
-0.140936
-0.165854
-0.192972
-0.206631
-0.200271
-0.177689
-0.148710
-0.099927
-0.054275
0.003168
0.035620
0.061839
0.092079
0.101570
0.097695
0.073739
0.029711
-0.006784
-0.048280
-0.088022
-0.128599
-0.161110
-0.181980
-0.181128
-0.171422
-0.158333
-0.129715
-0.086525
-0.043363
-0.003132
0.038272
0.069387
0.096570
0.103553
0.078770
0.053815
0.010820
-0.017529
-0.040519
-0.085251
-0.118534
-0.141554
-0.154291
-0.154558
-0.137685
-0.100698
-0.048281
0.002913
0.072371
0.127549
0.177011
0.220872
0.261778
0.282170
0.295144
0.298397
0.294930
0.283487
0.279981
0.264545
0.269148
0.268469
0.287871
0.313561
0.352912
0.410006
0.473514
0.552502
0.640798
0.717175
0.777526
0.845132
0.893959
0.917588
0.898983
0.864338
0.814125
0.759007
0.688067
0.608145
0.544084
0.457159
0.367315
0.300853
0.262837
0.219059
0.207869
0.193281
0.194142
0.207524
0.214655
0.226987
0.239128
0.236966
0.234635
0.202417
0.150915
0.105030
0.057346
0.002262
-0.049893
-0.082718
-0.109366
-0.120559
-0.118899
-0.105171
-0.074477
-0.042450
-0.002628
0.046708
0.087902
0.121575
0.132661
0.143386
0.149083
0.127979
0.091779
0.047583
-0.003999
-0.053949
-0.091013
-0.137661
-0.145308
-0.148356
-0.134038
-0.112706
-0.086487
-0.053058
-0.007924
0.039709
0.080604
0.117132
0.136417
0.139438
0.126640
0.097730
0.056495
0.021698
-0.029163
-0.071497
-0.118390
-0.149933
-0.160189
-0.156471
-0.148283
-0.129011
-0.102796
-0.065080
-0.020145
0.017829
0.048507
0.096145
0.123010
0.134115
0.129377
0.117578
0.083314
0.047322
-0.007918
-0.064559
-0.100950
-0.126351
-0.142958
-0.145640
-0.124555
-0.123244
-0.088588
-0.049497
0.001293
0.047629
0.077503
0.111393
0.137235
0.146877
0.156040
0.132551
0.094924
0.059333
0.009450
-0.026065
-0.057810
-0.082392
-0.111370
-0.128337
-0.123075
-0.097169
-0.065591
-0.023180
0.035455
0.078043
0.118140
0.136235
0.160970
0.183863
0.179730
0.158493
0.127076
0.086925
0.040776
-0.002096
-0.036955
-0.083963
-0.108932
-0.109435
-0.098163
-0.073955
-0.029006
0.005081
0.051492
0.104387
0.140657
0.184252
0.212201
0.223663
0.211274
0.190964
0.157115
0.115201
0.083927
0.049367
0.001464
-0.026416
-0.041152
-0.049384
-0.042364
-0.016159
0.027640
0.070012
0.119120
0.159757
0.186061
0.226220
0.249115
0.249205
0.248351
0.227122
0.197476
0.153046
0.099674
0.056600
0.024277
0.004311
-0.014665
-0.030557
-0.032774
-0.007170
0.012961
0.045355
0.096516
0.148784
0.200546
0.225432
0.241048
0.256328
0.257993
0.237531
0.210433
0.165950
0.117911
0.068363
0.016986
-0.017709
-0.036562
-0.039515
-0.034630
-0.010657
0.022724
0.055141
0.096560
0.140731
0.182780
0.212530
0.231155
0.230312
0.232051
0.210074
0.176597
0.133222
0.098119
0.056498
0.016934
-0.040200
-0.064973
-0.070302
-0.061505
-0.038896
-0.016198
0.026912
0.066815
0.108963
0.151524
0.170025
0.191503
0.196916
0.178845
0.162074
0.131985
0.092645
0.034537
-0.004687
-0.044799
-0.078276
-0.104886
-0.101279
-0.097341
-0.083445
-0.061685
-0.020255
0.017353
0.051229
0.099801
0.122276
0.150398
0.161111
0.155152
0.137675
0.092659
0.060816
0.025134
-0.019881
-0.056140
-0.090969
-0.130063
-0.132241
-0.124220
-0.090621
-0.063625
-0.033913
0.000182
0.037993
0.092349
0.118111
0.137729
0.152011
0.137444
0.110277
0.076393
0.032055
-0.002991
-0.040709
-0.090745
-0.126212
-0.142419
-0.158172
-0.146620
-0.134644
-0.104630
-0.063036
-0.025650
0.025285
0.071145
0.110135
0.131073
0.134851
0.123645
0.102167
0.070823
0.039350
-0.002135
-0.036017
-0.076399
-0.112784
-0.135621
-0.155051
-0.147156
-0.109892
-0.078987
-0.051261
-0.012368
0.034650
0.084835
0.118509
0.144811
0.162845
0.151883
0.131835
0.096178
0.052288
0.005812
-0.044382
-0.081819
-0.106202
-0.116702
-0.128514
-0.135329
-0.116162
-0.083530
-0.040426
0.005568
0.049007
0.088680
0.125011
0.144483
0.146801
0.139710
0.115427
0.083333
0.048622
0.003117
-0.042994
-0.082740
-0.106906
-0.104021
-0.128160
-0.119782
-0.098420
-0.072079
-0.045513
0.000207
0.031935
0.081300
0.109699
0.143651
0.160848
0.150831
0.126382
0.107762
0.065262
0.033851
-0.015642
-0.053592
-0.083677
-0.102174
-0.111553
-0.117089
-0.100731
-0.074230
-0.039410
0.001450
0.054068
0.083624
0.123918
0.151750
0.180833
0.172643
0.143952
0.103130
0.057294
0.004716
-0.026295
-0.077238
-0.116136
-0.128888
-0.141712
-0.129818
-0.117814
-0.092328
-0.052333
-0.003508
0.035491
0.088216
0.122317
0.146064
0.153134
0.147493
0.134346
0.092013
0.048537
0.001637
-0.038087
-0.080433
-0.113191
-0.145150
-0.136241
-0.116288
-0.101588
-0.079109
-0.035093
0.026533
0.062210
0.085499
0.106145
0.128490
0.146923
0.148549
0.119913
0.095524
0.049786
0.003150
-0.039630
-0.088738
-0.115667
-0.142800
-0.149401
-0.139913
-0.111184
-0.080368
-0.050119
-0.007155
0.047422
0.091803
0.115282
0.122649
0.123275
0.125081
0.103643
0.072202
0.042804
-0.001727
-0.041616
-0.078348
-0.111311
-0.144418
-0.152700
-0.156693
-0.136063
-0.100875
-0.041782
-0.011551
0.027926
0.082674
0.107093
0.133462
0.143104
0.135847
0.121073
0.087287
0.046943
-0.001197
-0.042820
-0.089528
-0.122611
-0.141196
-0.147348
-0.132604
-0.109191
-0.074589
-0.033943
0.003573
0.057040
0.095081
0.103323
0.123634
0.127697
0.123437
0.098227
0.063557
0.031902
-0.010468
-0.062761
-0.106833
-0.138061
-0.149326
-0.159714
-0.157760
-0.134698
-0.109608
-0.076775
-0.022327
0.016699
0.064486
0.092284
0.124479
0.138354
0.131464
0.103414
0.081338
0.049750
0.011862
-0.027176
-0.073970
-0.110328
-0.125808
-0.134488
-0.116354
-0.112837
-0.079648
-0.031549
0.030580
0.075588
0.099678
0.126066
0.145721
0.145632
0.146243
0.128568
0.108673
0.076462
0.024963
-0.011846
-0.054190
-0.102160
-0.119249
-0.124846
-0.111150
-0.099232
-0.066673
-0.019189
0.014831
0.059557
0.109615
0.140625
0.154753
0.168196
0.158510
0.135346
0.110014
0.068108
0.024782
-0.008809
-0.047205
-0.077020
-0.096054
-0.096778
-0.078484
-0.056844
-0.022182
0.013695
0.065700
0.102111
0.146305
0.184389
0.205549
0.205637
0.203677
0.177794
0.140814
0.098274
0.047559
-0.003853
-0.039769
-0.077209
-0.089959
-0.101215
-0.107338
-0.095281
-0.077916
-0.040644
0.011717
0.063608
0.109279
0.121286
0.140752
0.141011
0.131330
0.120030
0.092918
0.050562
-0.005307
-0.041102
-0.085662
-0.124372
-0.144100
-0.144952
-0.160717
-0.143021
-0.120698
-0.068974
-0.029257
0.016913
0.058818
0.097265
0.111974
0.114591
0.119823
0.097563
0.068252
0.029772
-0.009524
-0.053106
-0.093568
-0.139670
-0.177076
-0.173580
-0.172490
-0.150937
-0.127533
-0.091738
-0.034090
0.007993
0.046587
0.088078
0.108115
0.108301
0.100712
0.086856
0.056706
0.006837
-0.023256
-0.062359
-0.101722
-0.141425
-0.175040
-0.188324
-0.174090
-0.164722
-0.130132
-0.090820
-0.046161
-0.004766
0.046359
0.075302
0.095421
0.102644
0.099388
0.080119
0.070317
0.033427
-0.006384
-0.076226
-0.128490
-0.153218
-0.166118
-0.168862
-0.153691
-0.130371
-0.112992
-0.076246
-0.017573
0.027809
0.066241
0.091405
0.114296
0.124673
0.109715
0.087796
0.054557
0.004126
-0.042866
-0.082888
-0.121943
-0.159103
-0.168671
-0.182817
-0.172441
-0.132342
-0.084203
-0.033564
0.012062
0.063010
0.115998
0.157270
0.202927
0.222390
0.229490
0.216431
0.204407
0.174667
0.167670
0.143173
0.118692
0.107941
0.104939
0.134068
0.174513
0.236552
0.304027
0.363779
0.453553
0.519034
0.585986
0.655629
0.717695
0.774229
0.794047
0.815650
0.822437
0.804400
0.759744
0.695394
0.645986
0.594297
0.558318
0.543771
0.520733
0.514035
0.505393
0.469829
0.448168
0.434999
0.423366
0.410857
0.390819
0.347128
0.294057
0.243893
0.200589
0.163335
0.113842
0.062436
0.015640
-0.026835
-0.057143
-0.082036
-0.081672
-0.062827
-0.043616
-0.006054
0.042521
0.082529
0.126775
0.165623
0.189222
0.197084
0.181557
0.156712
0.111676
0.063994
0.022645
-0.018269
-0.061921
-0.110350
-0.127256
-0.126048
-0.122979
-0.099022
-0.072511
-0.029843
0.024235
0.070240
0.089498
0.120737
0.154502
0.153605
0.144650
0.114128
0.077376
0.032534
-0.006905
-0.042804
-0.076133
-0.112870
-0.145917
-0.155190
-0.149298
-0.129695
-0.099394
-0.060024
-0.007933
0.041793
0.085710
0.123527
0.143160
0.149065
0.140952
0.124069
0.098789
0.057349
0.012850
-0.044191
-0.074940
-0.107280
-0.129408
-0.131803
-0.118283
-0.094150
-0.064770
-0.032810
0.011068
0.066286
0.109462
0.145316
0.179990
0.181538
0.170655
0.157650
0.128219
0.088809
0.044776
-0.014641
-0.059830
-0.092784
-0.105137
-0.108692
-0.099613
-0.088655
-0.053467
-0.017731
0.023205
0.074083
0.113772
0.155389
0.190638
0.198659
0.207456
0.184493
0.145463
0.109217
0.060343
0.015557
-0.021874
-0.055628
-0.076047
-0.083553
-0.087215
-0.074927
-0.039628
0.008812
0.055873
0.107218
0.148328
0.186508
0.211909
0.229756
0.232457
0.211383
0.173963
0.135602
0.093417
0.049314
0.010901
-0.012675
-0.044002
-0.042526
-0.026517
0.000476
0.034172
0.078507
0.120204
0.170830
0.217263
0.252923
0.264214
0.260693
0.260902
0.228312
0.204252
0.171460
0.129624
0.080473
0.033665
-0.006524
-0.021599
-0.014458
-0.012212
0.012044
0.046446
0.080489
0.119477
0.162655
0.203490
0.234687
0.254441
0.265264
0.258257
0.243735
0.212181
0.177048
0.128986
0.082729
0.045644
0.011678
-0.011981
-0.018150
-0.014890
0.003797
0.047387
0.081078
0.129686
0.175682
0.206102
0.242832
0.265162
0.270710
0.258580
0.244978
0.209888
0.176724
0.132309
0.078320
0.037358
-0.011555
-0.036089
-0.035527
-0.033564
-0.007538
0.020915
0.049081
0.071409
0.124927
0.163215
0.181901
0.201185
0.228972
0.217558
0.195757
0.164829
0.127734
0.075574
0.022830
-0.019962
-0.052158
-0.075126
-0.090472
-0.082757
-0.069039
-0.046436
-0.002197
0.038284
0.089637
0.131830
0.161316
0.181423
0.187014
0.173378
0.152916
0.126632
0.092739
0.046775
-0.002901
-0.043850
-0.079029
-0.107845
-0.121861
-0.115948
-0.096682
-0.066638
-0.027697
0.023609
0.067786
0.112636
0.139758
0.177442
0.180151
0.166821
0.143656
0.107249
0.065704
0.012008
-0.037994
-0.077378
-0.108042
-0.143174
-0.144698
-0.124156
-0.108219
-0.084757
-0.055489
-0.021973
0.031695
0.079392
0.104906
0.134186
0.147380
0.139478
0.123516
0.095258
0.067669
0.014356
-0.029048
-0.064318
-0.093922
-0.122384
-0.141484
-0.126579
-0.105820
-0.070531
-0.033372
0.005056
0.058408
0.096377
0.119063
0.142348
0.152379
0.154711
0.130662
0.110515
0.071408
0.027276
-0.020384
-0.062613
-0.105333
-0.136057
-0.144618
-0.136243
-0.108994
-0.081638
-0.046554
0.006787
0.066006
0.102836
0.127194
0.151581
0.171658
0.165107
0.149232
0.116067
0.076486
0.021293
-0.027768
-0.066862
-0.092840
-0.123383
-0.141347
-0.114566
-0.087431
-0.067622
-0.031009
0.017965
0.074326
0.111368
0.126899
0.151569
0.167734
0.171512
0.147717
0.116018
0.083018
0.037389
-0.010506
-0.056876
-0.087675
-0.106418
-0.115112
-0.106891
-0.092256
-0.065031
-0.021195
0.028093
0.064163
0.100605
0.144328
0.161137
0.176727
0.155158
0.139458
0.106951
0.065306
0.015315
-0.025173
-0.065602
-0.108034
-0.124553
-0.128275
-0.117934
-0.101444
-0.065822
-0.027258
0.008321
0.058321
0.092456
0.131624
0.167746
0.167060
0.157182
0.142788
0.104462
0.069769
0.019963
-0.035631
-0.079570
-0.106130
-0.123117
-0.133624
-0.127297
-0.112077
-0.075085
-0.038223
0.007214
0.055668
0.098633
0.134716
0.150013
0.145116
0.142680
0.137371
0.102049
0.072668
0.026976
-0.020814
-0.067638
-0.100695
-0.127244
-0.129975
-0.131422
-0.106030
-0.079175
-0.036890
-0.002487
0.032480
0.072353
0.107237
0.140364
0.161046
0.161166
0.137756
0.098939
0.054565
0.017164
-0.032593
-0.082216
-0.116626
-0.141173
-0.142062
-0.130928
-0.122938
-0.090948
-0.039276
0.009015
0.058278
0.107045
0.141824
0.159035
0.170338
0.155529
0.126971
0.080098
0.041503
-0.000950
-0.040591
-0.083898
-0.117260
-0.128889
-0.141640
-0.139031
-0.122767
-0.079670
-0.045523
-0.003760
0.033841
0.079071
0.110541
0.133191
0.141581
0.144460
0.108413
0.078911
0.051184
0.014470
-0.035730
-0.080522
-0.120587
-0.142026
-0.158260
-0.152893
-0.131855
-0.095726
-0.054831
-0.001193
0.049664
0.083155
0.130649
0.167052
0.173753
0.154542
0.126368
0.092327
0.051343
0.000190
-0.052038
-0.100899
-0.139463
-0.157266
-0.158142
-0.150603
-0.110992
-0.085020
-0.041276
-0.001110
0.034782
0.085344
0.110752
0.136987
0.152142
0.146899
0.127097
0.098959
0.061706
0.021932
-0.025565
-0.078811
-0.120066
-0.137588
-0.143388
-0.122266
-0.094954
-0.064671
-0.017754
0.037621
0.080860
0.110930
0.152321
0.163880
0.170627
0.177108
0.167772
0.131245
0.084431
0.033208
-0.005832
-0.045305
-0.078793
-0.100476
-0.115431
-0.111774
-0.097546
-0.060470
-0.026272
0.020328
0.067552
0.113983
0.145571
0.168300
0.177177
0.173279
0.157862
0.138062
0.101993
0.061720
0.022888
-0.016606
-0.047658
-0.067424
-0.082119
-0.083003
-0.062777
-0.029733
0.009958
0.058943
0.106882
0.144354
0.181784
0.195599
0.191726
0.173042
0.142244
0.100385
0.063006
0.016260
-0.026609
-0.071965
-0.110541
-0.124381
-0.137423
-0.129488
-0.107435
-0.075580
-0.046233
-0.002488
0.046162
0.082924
0.120131
0.156762
0.167141
0.153899
0.131418
0.103507
0.054898
0.009761
-0.051187
-0.093030
-0.131061
-0.144136
-0.162095
-0.151660
-0.134955
-0.106487
-0.067632
-0.019156
0.025956
0.067718
0.106664
0.113208
0.132373
0.128771
0.102642
0.067537
0.044169
-0.002768
-0.055599
-0.095657
-0.128145
-0.153471
-0.163685
-0.153421
-0.134622
-0.108527
-0.069796
-0.021963
0.022034
0.064347
0.099545
0.121969
0.109810
0.107057
0.085441
0.060386
0.030007
-0.024375
-0.080491
-0.125009
-0.145699
-0.163986
-0.172471
-0.174483
-0.165219
-0.125911
-0.077781
-0.028792
0.011938
0.040551
0.088316
0.105745
0.120276
0.119504
0.104457
0.073265
0.036924
-0.018812
-0.055362
-0.088588
-0.128294
-0.154845
-0.162961
-0.156889
-0.142158
-0.109418
-0.065743
-0.026840
0.020588
0.061851
0.090111
0.104271
0.117698
0.112131
0.081931
0.055114
0.032028
-0.007706
-0.038740
-0.070045
-0.092713
-0.111725
-0.102804
-0.074523
-0.050103
0.009949
0.054483
0.100729
0.153433
0.218334
0.271394
0.309921
0.346813
0.365033
0.387886
0.386252
0.369051
0.360531
0.340405
0.330528
0.319285
0.334913
0.340532
0.375426
0.431759
0.489564
0.565153
0.659048
0.729215
0.801771
0.839230
0.854692
0.855588
0.860246
0.832041
0.788174
0.723645
0.625799
0.521631
0.417445
0.309354
0.228433
0.178005
0.135145
0.113199
0.098076
0.109138
0.134591
0.146629
0.165043
0.201819
0.205736
0.200333
0.197098
0.163677
0.129634
0.086142
0.039362
-0.005994
-0.048120
-0.075116
-0.094389
-0.100751
-0.096824
-0.096150
-0.064306
-0.031976
0.014379
0.053067
0.105623
0.138560
0.152190
0.150135
0.136012
0.117901
0.094877
0.056752
0.012084
-0.029439
-0.070899
-0.106144
-0.124411
-0.130836
-0.134089
-0.112405
-0.074968
-0.045754
-0.000361
0.049101
0.096190
0.136400
0.152907
0.154854
0.154782
0.140974
0.117961
0.078931
0.010040
-0.044593
-0.084678
-0.107637
-0.133303
-0.142880
-0.137651
-0.126011
-0.095058
-0.049865
0.007436
0.047900
0.088695
0.115302
0.141479
0.152758
0.151482
0.129552
0.106232
0.067219
0.014365
-0.022695
-0.066429
-0.103243
-0.142106
-0.137075
-0.133277
-0.114588
-0.084668
-0.025338
0.020694
0.072081
0.126889
0.151383
0.166431
0.169455
0.174296
0.156169
0.124592
0.104240
0.053872
-0.001569
-0.043350
-0.067566
-0.083389
-0.085269
-0.096890
-0.077399
-0.045070
0.012257
0.054837
0.095225
0.148883
0.201915
0.219852
0.224569
0.223891
0.200795
0.167080
0.121182
0.074277
0.009371
-0.027233
-0.067916
-0.081385
-0.090785
-0.085873
-0.066859
-0.031033
0.004645
0.049527
0.102878
0.166764
0.199191
0.227845
0.237132
0.232793
0.222196
0.193158
0.163685
0.122209
0.072802
0.026442
-0.003050
-0.023173
-0.022666
-0.017132
0.015661
0.045309
0.079286
0.128961
0.175208
0.224658
0.248907
0.258737
0.282336
0.268827
0.246578
0.218192
0.185580
0.147167
0.101722
0.057465
0.023644
-0.002728
-0.021387
-0.020223
-0.003412
0.043259
0.079351
0.132027
0.176623
0.221316
0.249328
0.266784
0.270879
0.263870
0.240457
0.215741
0.176710
0.129992
0.077547
0.033329
-0.000890
-0.024403
-0.032419
-0.026581
-0.006153
0.027271
0.068421
0.117053
0.161426
0.205177
0.239937
0.251520
0.255570
0.248224
0.238157
0.202986
0.164991
0.118730
0.077898
0.039735
-0.006452
-0.037809
-0.043497
-0.046772
-0.038313
-0.004106
0.036745
0.074660
0.131552
0.173713
0.190663
0.211722
0.211507
0.194247
0.163881
0.134018
0.109544
0.073032
0.016169
-0.034709
-0.064256
-0.089612
-0.094442
-0.096411
-0.081976
-0.051305
-0.019627
0.027128
0.078812
0.118322
0.156893
0.169779
0.173164
0.173926
0.153242
0.125794
0.088817
0.036765
-0.005346
-0.052118
-0.084138
-0.112218
-0.126444
-0.119856
-0.099692
-0.081019
-0.038615
0.013037
0.062584
0.105162
0.145652
0.176846
0.175415
0.170324
0.137587
0.114210
0.079793
0.025813
-0.018596
-0.068352
-0.112415
-0.133353
-0.132473
-0.137283
-0.122493
-0.085456
-0.044292
-0.015591
0.028480
0.076506
0.104189
0.123119
0.141234
0.146253
0.130731
0.097228
0.062046
0.025476
-0.026273
-0.086772
-0.118321
-0.131072
-0.142885
-0.130227
-0.101498
-0.060230
-0.031795
0.020009
0.060011
0.098973
0.127461
0.156715
0.164633
0.164237
0.141467
0.113508
0.079153
0.038655
-0.006023
-0.039476
-0.082807
-0.126801
-0.142437
-0.141444
-0.117955
-0.084585
-0.055644
0.008080
0.057386
0.113677
0.140047
0.166799
0.168227
0.156500
0.155432
0.114580
0.075334
0.027453
-0.015793
-0.059870
-0.098891
-0.120748
-0.124274
-0.116210
-0.095929
-0.059363
-0.028052
0.021176
0.070460
0.119696
0.145832
0.161726
0.168710
0.167451
0.150161
0.128780
0.098391
0.053215
-0.015812
-0.061200
-0.093957
-0.114828
-0.121237
-0.113935
-0.100867
-0.071210
-0.022767
0.028750
0.071591
0.108998
0.137427
0.159802
0.164577
0.167564
0.139334
0.111872
0.069506
0.028852
-0.017405
-0.073109
-0.103130
-0.127984
-0.133416
-0.125300
-0.111969
-0.096828
-0.053044
-0.000537
0.046165
0.090882
0.131895
0.147026
0.153696
0.158516
0.123710
0.101565
0.067965
0.018245
-0.032564
-0.072785
-0.112011
-0.139541
-0.147879
-0.137351
-0.112556
-0.078182
-0.028507
0.010590
0.050255
0.101039
0.129372
0.150396
0.166260
0.157434
0.134239
0.099667
0.058402
0.017000
-0.025298
-0.062165
-0.097743
-0.121661
-0.137161
-0.143741
-0.120645
-0.083335
-0.046620
-0.008186
0.042891
0.087814
0.123259
0.135530
0.151773
0.144327
0.122281
0.097877
0.062618
0.005418
-0.044838
-0.077719
-0.113586
-0.135657
-0.150319
-0.149372
-0.120382
-0.099529
-0.051132
-0.003960
0.038248
0.090694
0.124319
0.136364
0.146255
0.147065
0.136340
0.103939
0.060339
0.014360
-0.027890
-0.076233
-0.117162
-0.129043
-0.144773
-0.139682
-0.112988
-0.092985
-0.053699
-0.002272
0.056583
0.099164
0.131826
0.163345
0.175611
0.169913
0.150260
0.126690
0.078837
0.037226
-0.005022
-0.039105
-0.077829
-0.100855
-0.101712
-0.078643
-0.074270
-0.046335
-0.017243
0.029450
0.083404
0.109409
0.140413
0.163220
0.167422
0.163861
0.143925
0.106704
0.049648
0.040656
-0.018584
-0.059997
-0.100985
-0.109512
-0.112852
-0.105199
-0.088348
-0.044958
-0.003438
0.046326
0.100556
0.144476
0.177937
0.197205
0.198152
0.179369
0.165966
0.146022
0.101415
0.052053
0.008882
-0.031940
-0.057343
-0.079674
-0.083863
-0.086443
-0.071666
-0.042832
-0.007228
0.031441
0.074033
0.115927
0.136509
0.153172
0.151546
0.151883
0.138216
0.106459
0.062694
0.012131
-0.037351
-0.082853
-0.116799
-0.136210
-0.152115
-0.143697
-0.130306
-0.105441
-0.054256
-0.008050
0.039379
0.068727
0.100269
0.117871
0.131132
0.128396
0.109329
0.062581
0.013736
-0.028636
-0.066008
-0.100449
-0.136573
-0.157144
-0.164626
-0.158393
-0.146667
-0.116602
-0.079890
-0.037159
0.010603
0.052964
0.089150
0.118409
0.134444
0.121863
0.092389
0.045373
0.005130
-0.032186
-0.066573
-0.114843
-0.149780
-0.160557
-0.184028
-0.183057
-0.159756
-0.132684
-0.086131
-0.036055
0.010937
0.052041
0.076885
0.099643
0.121815
0.122179
0.094206
0.054345
0.007256
-0.033329
-0.089861
-0.126836
-0.169477
-0.180472
-0.194009
-0.174804
-0.159213
-0.136105
-0.091471
-0.038563
0.003873
0.050264
0.084659
0.093870
0.107285
0.106939
0.083546
0.050253
0.006010
-0.021560
-0.068751
-0.114159
-0.151050
-0.161391
-0.180538
-0.153410
-0.123686
-0.087185
-0.041939
0.016913
0.083547
0.139524
0.186977
0.224382
0.240558
0.266089
0.254274
0.222641
0.191268
0.161247
0.134629
0.104818
0.102113
0.109614
0.125979
0.150360
0.210029
0.278086
0.344736
0.407695
0.483451
0.557731
0.616951
0.674853
0.730108
0.762260
0.782591
0.793491
0.786957
0.762210
0.713249
0.665951
0.633473
0.602072
0.565916
0.543837
0.533952
0.500190
0.489199
0.472435
0.447512
0.431489
0.418555
0.385766
0.357325
0.294313
0.248373
0.211173
0.155229
0.101707
0.030371
-0.019376
-0.047355
-0.063561
-0.087582
-0.083290
-0.073722
-0.046565
-0.013655
0.032474
0.093580
0.137376
0.163900
0.182428
0.181331
0.175406
0.137802
0.096102
0.052367
0.009253
-0.038224
-0.088126
-0.116121
-0.136804
-0.137603
-0.132869
-0.110654
-0.071871
-0.037799
-0.004052
0.037676
0.079304
0.103157
0.136715
0.148159
0.143078
0.124116
0.098589
0.059991
0.021603
-0.027384
-0.080891
-0.121430
-0.144438
-0.142339
-0.140873
-0.128933
-0.089871
-0.041457
0.008349
0.053049
0.093532
0.122620
0.147488
0.161485
0.161069
0.135369
0.098709
0.052236
0.010032
-0.044648
-0.085746
-0.116737
-0.136115
-0.135765
-0.129105
-0.101716
-0.073882
-0.031400
-0.000876
0.047605
0.100213
0.139374
0.170345
0.172634
0.173633
0.148213
0.117356
0.079948
0.042415
-0.002835
-0.052119
-0.099891
-0.121646
-0.134788
-0.118233
-0.102980
-0.072735
-0.025658
0.028435
0.067250
0.105618
0.154484
0.187220
0.210942
0.201472
0.175133
0.147675
0.094850
0.056310
0.003286
-0.036946
-0.062690
-0.090151
-0.095671
-0.087356
-0.068705
-0.039181
0.006051
0.055730
0.104933
0.157211
0.201120
0.227165
0.227183
0.231820
0.214657
0.185339
0.131800
0.088205
0.048642
0.005393
-0.029892
-0.045450
-0.056455
-0.039119
-0.009721
0.030446
0.057547
0.095152
0.151153
0.199992
0.237187
0.256721
0.257426
0.260032
0.245813
0.217220
0.183604
0.134872
0.084823
0.043837
0.017290
-0.014045
-0.023211
-0.025167
0.003184
0.031148
0.074234
0.115958
0.168748
0.217582
0.247636
0.268755
0.277082
0.277423
0.264415
0.231022
0.184577
0.129335
0.079705
0.042546
0.010688
-0.004166
-0.014597
-0.018409
-0.004063
0.033642
0.064523
0.102025
0.150490
0.196194
0.238026
0.252876
0.261447
0.258959
0.230934
0.196337
0.157145
0.112488
0.078489
0.041862
-0.011336
-0.038927
-0.044929
-0.040308
-0.022946
-0.005005
0.040000
0.080634
0.127031
0.164603
0.197780
0.220538
0.223152
0.215981
0.197968
0.160316
0.114429
0.061712
0.020000
-0.021983
-0.053615
-0.080970
-0.087715
-0.078952
-0.071747
-0.055106
-0.018110
0.023926
0.082751
0.113812
0.152965
0.164139
0.178891
0.174033
0.156297
0.128348
0.093157
0.048436
-0.021797
-0.062082
-0.097344
-0.118692
-0.125084
-0.120652
-0.104788
-0.085798
-0.040817
0.004648
0.045113
0.092624
0.134081
0.141967
0.153504
0.145017
0.131796
0.101991
0.073321
0.030215
-0.022095
-0.080409
-0.115417
-0.128477
-0.137578
-0.127008
-0.107192
-0.079224
-0.039894
0.007199
0.062631
0.094257
0.117624
0.137005
0.150732
0.124881
0.124171
0.095720
0.045069
0.001758
-0.038091
-0.069591
-0.117760
-0.135611
-0.145146
-0.154915
-0.137518
-0.101773
-0.059668
-0.012748
0.034540
0.082832
0.123720
0.141544
0.147139
0.147752
0.132560
0.100622
0.066540
0.029628
-0.027730
-0.076550
-0.113782
-0.135537
-0.145545
-0.141011
-0.129620
-0.092073
-0.044841
-0.002162
0.045961
0.096435
0.134022
0.159578
0.162419
0.161105
0.134930
0.102734
0.064833
0.019572
-0.017556
-0.062337
-0.096922
-0.112861
-0.120450
-0.118248
-0.100643
-0.067007
-0.025210
0.011488
0.066138
0.114420
0.140336
0.155772
0.164981
0.153157
0.130947
0.103852
0.068441
0.018768
-0.024098
-0.067359
-0.108696
-0.136799
-0.144116
-0.129573
-0.111774
-0.075946
-0.035654
0.005034
0.058250
0.112305
0.144949
0.167888
0.175183
0.163301
0.148901
0.105816
0.062752
0.025511
-0.019384
-0.049876
-0.091415
-0.124362
-0.129287
-0.120966
-0.106226
-0.064970
-0.027959
0.012622
0.069658
0.106273
0.142214
0.167579
0.174366
0.166206
0.150575
0.120881
0.075828
0.029776
-0.037224
-0.071499
-0.101476
-0.128432
-0.147541
-0.142315
-0.113981
-0.085847
-0.049245
0.003754
0.049113
0.089952
0.119780
0.136438
0.150331
0.138820
0.136631
0.100026
0.041791
-0.002640
-0.048560
-0.103757
-0.125373
-0.133048
-0.148269
-0.138334
-0.119835
-0.077568
-0.046597
-0.002640
0.043068
0.091307
0.124284
0.145276
0.153867
0.147441
0.130397
0.102340
0.066402
0.024193
-0.033980
-0.075535
-0.102021
-0.124841
-0.141908
-0.134600
-0.114345
-0.079948
-0.050284
-0.005721
0.048210
0.096388
0.118534
0.141127
0.172794
0.154353
0.129905
0.096505
0.062223
0.007450
-0.048087
-0.107072
-0.127030
-0.140652
-0.155399
-0.154816
-0.137206
-0.087537
-0.044968
0.000454
0.044626
0.095690
0.127969
0.152456
0.165349
0.166324
0.144754
0.122787
0.079543
0.041014
-0.005901
-0.046627
-0.064707
-0.088495
-0.101579
-0.100414
-0.078953
-0.037899
0.005674
0.042042
0.090675
0.130335
0.166914
0.179512
0.184713
0.180782
0.166981
0.137642
0.091622
0.050860
0.005055
-0.036932
-0.081925
-0.111121
-0.122248
-0.104322
-0.089597
-0.060825
-0.020474
0.033709
0.097938
0.136851
0.172021
0.195365
0.202752
0.199665
0.174497
0.144991
0.105998
0.058687
0.007907
-0.036238
-0.071739
-0.095706
-0.111982
-0.099851
-0.080759
-0.051589
-0.008719
0.031964
0.082573
0.125877
0.150093
0.169948
0.183735
0.165047
0.148155
0.119093
0.071515
0.030621
-0.016567
-0.068268
-0.104441
-0.136912
-0.149483
-0.148853
-0.124881
-0.100361
-0.059266
-0.010851
0.036413
0.086366
0.118939
0.141454
0.151723
0.156206
0.131120
0.084391
0.034833
-0.016035
-0.061983
-0.103439
-0.130643
-0.149866
-0.166315
-0.165011
-0.144207
-0.114167
-0.076861
-0.032333
0.027473
0.047227
0.072280
0.102788
0.117559
0.113361
0.094565
0.061587
0.024474
-0.021809
-0.063461
-0.107998
-0.143985
-0.167682
-0.175779
-0.164713
-0.151765
-0.116881
-0.074750
-0.026135
0.016084
0.068266
0.094637
0.130755
0.140543
0.142109
0.117346
0.085589
0.044969
-0.013977
-0.062224
-0.114284
-0.144247
-0.152526
-0.165253
-0.159990
-0.151412
-0.118767
-0.072149
-0.032696
0.014371
0.061289
0.086581
0.106552
0.114369
0.121009
0.092619
0.045000
0.008402
-0.027235
-0.070520
-0.122869
-0.157767
-0.186864
-0.185813
-0.173965
-0.146079
-0.100397
-0.060015
0.002102
0.055899
0.117466
0.167703
0.196430
0.213801
0.234903
0.232321
0.203183
0.185254
0.143716
0.113107
0.087990
0.079694
0.078559
0.101011
0.143774
0.183323
0.223453
0.308008
0.388876
0.471505
0.536408
0.601832
0.658382
0.708944
0.729532
0.750396
0.765337
0.760104
0.734502
0.718794
0.688710
0.646714
0.613011
0.592723
0.576830
0.570964
0.570993
0.579696
0.581393
0.557162
0.538518
0.516605
0.484065
0.445649
0.394108
0.323866
0.254417
0.196492
0.126372
0.071027
0.025142
-0.010797
-0.034048
-0.076145
-0.065987
-0.061488
-0.019618
0.019283
0.051768
0.096653
0.145457
0.178423
0.196747
0.204945
0.201476
0.176441
0.140733
0.084912
0.032675
-0.013210
-0.051497
-0.087094
-0.113578
-0.126265
-0.115852
-0.095389
-0.067013
-0.036079
0.019162
0.064297
0.100145
0.128805
0.145079
0.152389
0.151919
0.132662
0.095836
0.051277
0.004212
-0.039183
-0.081162
-0.109753
-0.133503
-0.143589
-0.132910
-0.130465
-0.097035
-0.052378
0.004916
0.051901
0.092887
0.125287
0.153713
0.162552
0.164060
0.144600
0.108760
0.072383
0.027100
-0.028633
-0.061368
-0.092580
-0.118942
-0.116302
-0.118890
-0.096436
-0.068694
-0.029106
0.029978
0.074857
0.116832
0.150056
0.172728
0.179157
0.176551
0.155847
0.123317
0.078329
0.024946
-0.019408
-0.055938
-0.087421
-0.102921
-0.105904
-0.106276
-0.080514
-0.058107
-0.014319
0.027236
0.073541
0.124640
0.158701
0.188300
0.198541
0.197439
0.185064
0.157108
0.110886
0.064874
0.010436
-0.037394
-0.069767
-0.081960
-0.096343
-0.083584
-0.055382
-0.021603
0.027412
0.087620
0.128431
0.167678
0.208569
0.234047
0.242624
0.240542
0.217556
0.179610
0.142806
0.099957
0.065579
0.031038
-0.007102
-0.038154
-0.044147
-0.041113
-0.019575
0.011981
0.056184
0.111529
0.165964
0.214245
0.247362
0.277300
0.285703
0.280669
0.257897
0.224765
0.176299
0.139898
0.091070
0.054047
0.018465
-0.011823
-0.022087
-0.025863
0.002807
0.033874
0.089134
0.123873
0.167182
0.209207
0.250992
0.274399
0.282606
0.282620
0.273870
0.240377
0.193728
0.148211
0.105877
0.061255
0.028502
0.009057
-0.001249
0.005852
0.023367
0.048538
0.083192
0.129843
0.181744
0.225754
0.250803
0.269411
0.287408
0.282048
0.260861
0.217259
0.178151
0.117683
0.066102
0.023889
-0.007352
-0.029118
-0.037803
-0.023629
-0.013933
0.002122
0.049863
0.104135
0.136298
0.176598
0.217004
0.229258
0.226437
0.232043
0.217697
0.176942
0.131265
0.080732
0.034195
-0.008775
-0.046162
-0.069610
-0.085330
-0.089206
-0.076517
-0.046503
0.004377
0.056227
0.099388
0.135592
0.167482
0.194009
0.212798
0.205783
0.179169
0.136865
0.090408
0.039737
-0.011208
-0.050124
-0.077562
-0.101436
-0.112075
-0.108069
-0.089631
-0.059578
-0.017045
0.042340
0.082349
0.124874
0.160248
0.176440
0.165369
0.166445
0.153354
0.129525
0.081337
0.021411
-0.026784
-0.070097
-0.097011
-0.120474
-0.141261
-0.133369
-0.114219
-0.081760
-0.050496
0.006810
0.042379
0.091481
0.123167
0.146891
0.153576
0.156004
0.134272
0.108422
0.062113
0.007890
-0.022581
-0.067731
-0.098505
-0.125691
-0.128311
-0.118762
-0.102788
-0.073485
-0.042959
0.021879
0.067886
0.108987
0.138955
0.158978
0.177053
0.170797
0.148984
0.119996
0.086329
0.044736
-0.007190
-0.052072
-0.083438
-0.107645
-0.112129
-0.118157
-0.102274
-0.087177
-0.041509
0.018015
0.073354
0.108707
0.136044
0.161602
0.173561
0.164185
0.147605
0.112690
0.075962
0.034404
-0.011110
-0.059404
-0.095465
-0.120132
-0.118799
-0.117905
-0.093594
-0.056216
-0.024644
0.008801
0.060316
0.111021
0.149476
0.173599
0.189575
0.199216
0.179987
0.144882
0.091468
0.051504
0.005567
-0.045030
-0.088424
-0.121448
-0.124080
-0.123123
-0.098943
-0.058091
-0.019051
0.029453
0.068017
0.126223
0.166692
0.182711
0.186119
0.172196
0.157196
0.121563
0.078763
0.036652
-0.005087
-0.056546
-0.088507
-0.115733
-0.120296
-0.116418
-0.102825
-0.066567
-0.028613
0.023130
0.078311
0.119534
0.157212
0.185131
0.187923
0.178639
0.154258
0.129844
0.093033
0.040718
-0.020906
-0.062382
-0.105461
-0.119803
-0.132079
-0.119979
-0.104788
-0.063087
-0.019238
0.023971
0.073102
0.106075
0.138303
0.164527
0.180749
0.173084
0.155884
0.122740
0.077878
0.028951
-0.017075
-0.055881
-0.090719
-0.120928
-0.140570
-0.124720
-0.103579
-0.058530
-0.023533
0.030744
0.074529
0.108238
0.150781
0.171313
0.174026
0.171241
0.141640
0.109091
0.079060
0.022505
-0.040232
-0.079400
-0.116448
-0.144231
-0.151962
-0.138166
-0.119305
-0.087009
-0.040502
-0.001109
0.051445
0.093364
0.132199
0.162722
0.157325
0.152143
0.126625
0.091232
0.056309
0.011852
-0.024717
-0.063649
-0.093145
-0.125128
-0.135781
-0.134627
-0.106854
-0.065453
-0.029992
0.009509
0.045595
0.088687
0.129972
0.151338
0.169807
0.173456
0.162023
0.119777
0.083233
0.030363
-0.022331
-0.061895
-0.109221
-0.145081
-0.151849
-0.148893
-0.122750
-0.094026
-0.049743
0.003158
0.049748
0.098827
0.133336
0.150008
0.157387
0.162777
0.137689
0.094722
0.059034
0.013188
-0.038066
-0.083253
-0.107189
-0.136951
-0.154334
-0.134231
-0.115037
-0.068976
-0.024255
0.004307
0.055135
0.104375
0.139361
0.164270
0.178889
0.181686
0.163240
0.123029
0.089272
0.041112
-0.005946
-0.038819
-0.074234
-0.097437
-0.106779
-0.103803
-0.082141
-0.039703
0.011375
0.053098
0.101783
0.147447
0.175576
0.202281
0.217687
0.205515
0.176008
0.130759
0.075282
0.033544
0.003664
-0.045245
-0.070051
-0.100823
-0.119409
-0.109786
-0.083986
-0.039479
0.016816
0.068735
0.111036
0.146222
0.187048
0.216706
0.232874
0.225874
0.197828
0.166426
0.115536
0.069028
0.018867
-0.027796
-0.065162
-0.105370
-0.114428
-0.111913
-0.091962
-0.063767
-0.024246
0.024411
0.072807
0.116424
0.155407
0.196380
0.193061
0.190945
0.164451
0.132791
0.088419
0.042715
-0.013579
-0.059124
-0.093209
-0.131804
-0.143658
-0.133305
-0.109402
-0.069902
-0.045962
0.000005
0.045682
0.087423
0.124530
0.152834
0.149624
0.142759
0.122121
0.084443
0.048189
0.005352
-0.046388
-0.086179
-0.126260
-0.143574
-0.161691
-0.162292
-0.135672
-0.109528
-0.071409
-0.021813
0.025355
0.061311
0.103534
0.130849
0.132988
0.131807
0.109065
0.074060
0.031360
-0.014054
-0.067027
-0.111445
-0.146949
-0.177232
-0.171171
-0.160440
-0.138934
-0.101076
-0.053467
-0.009578
0.033249
0.077472
0.116475
0.133110
0.150015
0.133132
0.104145
0.077243
0.040708
-0.006296
-0.056412
-0.099243
-0.136568
-0.159528
-0.175671
-0.167436
-0.135453
-0.103984
-0.069940
-0.016778
0.044366
0.084875
0.118855
0.129189
0.133930
0.125551
0.106472
0.078114
0.046648
-0.004217
-0.053617
-0.086543
-0.128715
-0.168823
-0.185216
-0.185311
-0.169303
-0.131415
-0.071288
-0.028047
0.028628
0.079550
0.120210
0.163634
0.182814
0.189065
0.192989
0.177857
0.147927
0.115533
0.082474
0.043229
0.019227
0.007889
0.029336
0.058266
0.114150
0.176553
0.248521
0.332124
0.419818
0.500052
0.570729
0.616124
0.667271
0.684869
0.705189
0.700482
0.703058
0.700942
0.681265
0.669237
0.671674
0.664154
0.655521
0.647864
0.667534
0.683037
0.712095
0.726971
0.748387
0.745797
0.711944
0.667155
0.608122
0.559054
0.475414
0.395151
0.293349
0.193243
0.117946
0.062501
0.022151
-0.010657
-0.028950
-0.032315
-0.030447
0.003340
0.044089
0.083184
0.121410
0.165654
0.198460
0.221917
0.214216
0.202908
0.179395
0.146000
0.094478
0.052972
0.005015
-0.030184
-0.067469
-0.094499
-0.106084
-0.111535
-0.099172
-0.065535
-0.035096
0.019171
0.077700
0.098759
0.134295
0.169604
0.183173
0.174310
0.156504
0.119955
0.061570
0.018099
-0.033756
-0.079686
-0.111680
-0.140912
-0.142623
-0.144018
-0.133961
-0.093518
-0.044354
0.002108
0.044757
0.097464
0.130774
0.154898
0.150472
0.146345
0.122565
0.095161
0.045444
0.012717
-0.040638
-0.078609
-0.108240
-0.124214
-0.134505
-0.131519
-0.109135
-0.078812
-0.033098
0.019533
0.072991
0.116805
0.154876
0.183925
0.193067
0.189285
0.165398
0.127485
0.078384
0.037698
0.005864
-0.050536
-0.086745
-0.100978
-0.128862
-0.126407
-0.108374
-0.071219
-0.022437
0.029966
0.081635
0.121870
0.152186
0.177817
0.197595
0.194338
0.182034
0.147323
0.112212
0.065907
0.015916
-0.029651
-0.075210
-0.085139
-0.097829
-0.087923
-0.069755
-0.039761
0.006930
0.058641
0.115095
0.160168
0.202418
0.223969
0.242145
0.231966
0.218296
0.172436
0.130291
0.085154
0.044571
0.005987
-0.035973
-0.056581
-0.055446
-0.046293
-0.031696
0.000963
0.051160
0.102586
0.146281
0.192670
0.231137
0.242180
0.252156
0.246605
0.228717
0.208836
0.171217
0.127290
0.082849
0.032212
-0.000167
-0.019349
-0.021137
-0.016654
0.004139
0.033804
0.075053
0.118927
0.165494
0.224394
0.251468
0.267197
0.277520
0.274502
0.249849
0.215495
0.169069
0.125234
0.087493
0.045230
0.008306
-0.006199
-0.014750
-0.017136
-0.002229
0.034109
0.077082
0.121845
0.164213
0.216700
0.259964
0.271695
0.272848
0.269780
0.246263
0.214933
0.172102
0.122904
0.072322
0.028511
-0.004976
-0.032171
-0.045616
-0.034937
-0.013728
0.015282
0.051232
0.099167
0.144000
0.183513
0.214104
0.231473
0.245612
0.238582
0.221007
0.177123
0.125806
0.083512
0.032806
-0.010049
-0.045842
-0.074807
-0.086228
-0.077116
-0.056807
-0.034020
0.005144
0.046890
0.080136
0.126071
0.166407
0.183345
0.193747
0.189286
0.160476
0.124686
0.089184
0.039145
-0.014940
-0.059472
-0.106924
-0.116581
-0.130937
-0.119740
-0.093104
-0.062179
-0.006804
0.027343
0.070328
0.109020
0.141247
0.166568
0.189032
0.179371
0.138661
0.097156
0.061295
0.018671
-0.029782
-0.075682
-0.106325
-0.133887
-0.154362
-0.147321
-0.125767
-0.085834
-0.038542
0.012840
0.065862
0.104229
0.135233
0.160619
0.169926
0.144078
0.125482
0.089564
0.037229
-0.003932
-0.053390
-0.090530
-0.121951
-0.148171
-0.162672
-0.151340
-0.139898
-0.101394
-0.054971
-0.016939
0.040755
0.086288
0.122483
0.154429
0.172314
0.154089
0.121117
0.091944
0.061414
0.019463
-0.021313
-0.078584
-0.107127
-0.130561
-0.137421
-0.129628
-0.113190
-0.073635
-0.031267
0.012570
0.049023
0.100175
0.131888
0.148087
0.158257
0.156918
0.140057
0.112141
0.069623
0.020953
-0.020835
-0.066802
-0.108500
-0.127642
-0.137622
-0.124602
-0.111911
-0.072514
-0.030990
0.021725
0.066002
0.103505
0.147792
0.164308
0.165828
0.159221
0.148968
0.109981
0.049631
0.005806
-0.035500
-0.072105
-0.105210
-0.130528
-0.140498
-0.117730
-0.102556
-0.069772
-0.026784
0.022466
0.051912
0.095623
0.129801
0.156802
0.171222
0.173850
0.160711
0.135608
0.079111
0.014953
-0.026627
-0.071369
-0.099054
-0.120515
-0.134244
-0.126553
-0.108688
-0.069792
-0.025135
0.008240
0.050124
0.088060
0.113735
0.151965
0.175810
0.168182
0.144249
0.104499
0.054048
0.010697
-0.037657
-0.097025
-0.127810
-0.146433
-0.153780
-0.128277
-0.113822
-0.074255
-0.033289
-0.000282
0.049342
0.096003
0.134543
0.149755
0.167860
0.157844
0.136814
0.109613
0.073578
0.024197
-0.020987
-0.065179
-0.114234
-0.147660
-0.152837
-0.145385
-0.122642
-0.090147
-0.042496
0.000989
0.050553
0.099817
0.137264
0.156510
0.175743
0.156864
0.126550
0.088839
0.048509
-0.004205
-0.039437
-0.081016
-0.118071
-0.145958
-0.161152
-0.151709
-0.120433
-0.092275
-0.054422
-0.004229
0.043579
0.089691
0.118787
0.147645
0.146453
0.140250
0.119065
0.091121
0.061422
0.007736
-0.045001
-0.095751
-0.121928
-0.129333
-0.148044
-0.138655
-0.129199
-0.097618
-0.058546
-0.015113
0.025818
0.073957
0.125605
0.160017
0.164104
0.145472
0.140006
0.111594
0.055334
-0.011380
-0.068032
-0.112710
-0.149573
-0.171600
-0.170143
-0.150634
-0.131849
-0.112481
-0.066550
-0.020670
0.030304
0.069127
0.114398
0.139525
0.145616
0.138625
0.121008
0.083792
0.035742
-0.014373
-0.059552
-0.104844
-0.133711
-0.152949
-0.164697
-0.152462
-0.137202
-0.110762
-0.061806
-0.008249
0.032161
0.073004
0.108617
0.135743
0.147106
0.143924
0.114228
0.090087
0.045233
-0.001679
-0.052849
-0.092106
-0.126973
-0.145222
-0.159965
-0.162886
-0.147487
-0.104296
-0.051277
-0.006867
0.030103
0.077414
0.120031
0.147300
0.158032
0.146078
0.122731
0.097423
0.064508
0.021895
-0.026267
-0.064378
-0.122969
-0.148223
-0.153335
-0.155294
-0.131936
-0.094608
-0.052178
0.016371
0.058882
0.108546
0.140191
0.160637
0.173734
0.171158
0.147868
0.110564
0.068894
0.024136
-0.022879
-0.073656
-0.099392
-0.119603
-0.126901
-0.119737
-0.106537
-0.067484
-0.021842
0.014120
0.062407
0.111683
0.151582
0.164793
0.172035
0.170759
0.149668
0.111565
0.084072
0.058191
0.018242
-0.025899
-0.063152
-0.086693
-0.109269
-0.107589
-0.082781
-0.048046
-0.004305
0.035895
0.077714
0.136621
0.155844
0.176627
0.186261
0.162541
0.144490
0.103099
0.064476
0.011393
-0.029166
-0.077606
-0.118059
-0.144403
-0.147461
-0.136993
-0.117459
-0.092441
-0.042180
-0.006388
0.042259
0.083675
0.122819
0.143775
0.148713
0.152858
0.128686
0.087394
0.041675
-0.003816
-0.045762
-0.091819
-0.121746
-0.142557
-0.156118
-0.154162
-0.141575
-0.106282
-0.061435
-0.023060
0.016939
0.073481
0.101359
0.127770
0.125386
0.120922
0.104081
0.084058
0.038281
-0.017315
-0.061359
-0.111760
-0.137943
-0.162751
-0.180602
-0.193038
-0.176270
-0.148226
-0.112097
-0.058859
-0.002259
0.055308
0.086880
0.105631
0.114006
0.109197
0.088482
0.041628
-0.001638
-0.042500
-0.090848
-0.136976
-0.163311
-0.174950
-0.187042
-0.181343
-0.165424
-0.126631
-0.088577
-0.039397
0.016997
0.067108
0.109674
0.127349
0.134593
0.119096
0.093270
0.057369
0.015158
-0.023826
-0.071216
-0.121388
-0.164099
-0.182290
-0.201372
-0.188549
-0.163208
-0.123301
-0.077481
-0.033808
0.014303
0.055136
0.076037
0.103322
0.114201
0.116839
0.093529
0.053920
0.010349
-0.032460
-0.073197
-0.113429
-0.140466
-0.158535
-0.146190
-0.134594
-0.123241
-0.067662
-0.009226
0.059012
0.121352
0.180611
0.218006
0.263750
0.288351
0.319150
0.316332
0.314248
0.306488
0.288975
0.282302
0.270660
0.269226
0.272994
0.290060
0.331864
0.384103
0.443598
0.516689
0.616137
0.707526
0.785570
0.842153
0.893693
0.931182
0.922201
0.888961
0.851484
0.782450
0.714121
0.643843
0.583696
0.513569
0.412619
0.327632
0.280174
0.248970
0.232364
0.220640
0.211962
0.225153
0.246247
0.260524
0.279561
0.269033
0.247232
0.227169
0.180208
0.141424
0.080460
0.002901
-0.037108
-0.089378
-0.111977
-0.121875
-0.114604
-0.102897
-0.063710
-0.031483
0.019185
0.055126
0.109924
0.147500
0.169785
0.170709
0.160577
0.153995
0.122775
0.062910
0.010476
-0.035988
-0.083725
-0.114193
-0.135464
-0.149194
-0.149473
-0.135450
-0.101337
-0.051758
0.000856
0.039252
0.084218
0.120869
0.146161
0.154192
0.150359
0.117452
0.091111
0.055850
-0.003575
-0.051246
-0.081165
-0.115453
-0.155273
-0.170600
-0.159369
-0.133881
-0.106320
-0.055366
-0.011084
0.032423
0.083834
0.126483
0.150212
0.152709
0.138575
0.105507
0.074135
0.043292
-0.005474
-0.045090
-0.080586
-0.117314
-0.141456
-0.150733
-0.144269
-0.116585
-0.072664
-0.028785
0.018626
0.066445
0.109180
0.146680
0.182301
0.180740
0.183163
0.156872
0.118170
0.077464
0.027383
-0.014866
-0.064987
-0.100346
-0.122509
-0.122303
-0.111221
-0.093612
-0.058890
-0.016564
0.021215
0.065704
0.108991
0.156950
0.194033
0.193914
0.197779
0.176873
0.123774
0.076786
0.036379
-0.011599
-0.044515
-0.077227
-0.103628
-0.112148
-0.099608
-0.081658
-0.053707
0.009583
0.062241
0.112490
0.156853
0.199246
0.226684
0.243364
0.228454
0.201267
0.180717
0.150650
0.108218
0.066842
0.013013
-0.022382
-0.051711
-0.045394
-0.036750
-0.017109
0.013677
0.050254
0.094033
0.150774
0.195985
0.233414
0.268924
0.274968
0.280716
0.257034
0.211913
0.168111
0.120278
0.077318
0.024664
-0.017595
-0.048714
-0.039877
-0.032504
-0.010917
0.033428
0.076393
0.113518
0.155708
0.195646
0.238619
0.260391
0.269841
0.271132
0.238981
0.203964
0.166136
0.130290
0.084105
0.047120
0.002132
-0.023929
-0.042550
-0.038052
-0.024159
0.018397
0.060690
0.105756
0.160313
0.218148
0.257529
0.273149
0.262595
0.256046
0.225058
0.180706
0.137845
0.092688
0.043977
-0.001962
-0.024364
-0.052251
-0.059753
-0.055564
-0.034326
-0.004268
0.023752
0.060058
0.112721
0.159744
0.188215
0.206762
0.214071
0.200712
0.173922
0.133853
0.080675
0.047716
-0.009864
-0.048884
-0.069813
-0.105598
-0.122450
-0.116524
-0.099324
-0.059648
-0.011455
0.024230
0.070649
0.111844
0.156481
0.169665
0.175595
0.167396
0.150702
0.106866
0.061888
0.021687
-0.020692
-0.063287
-0.107556
-0.138461
-0.142151
-0.125876
-0.109884
-0.083203
-0.049194
-0.006666
0.039489
0.088511
0.117056
0.154151
0.169925
0.166717
0.125160
0.104377
0.062645
0.012348
-0.036453
-0.095020
-0.135429
-0.150725
-0.155083
-0.154514
-0.135904
-0.106133
-0.061576
-0.015186
0.029981
0.077481
0.110438
0.132163
0.140501
0.143322
0.123465
0.083225
0.043963
0.002966
-0.050730
-0.099659
-0.127548
-0.145602
-0.156079
-0.155449
-0.144991
-0.103578
-0.063239
-0.017489
0.035885
0.090955
0.132956
0.158184
0.162149
0.156520
0.142819
0.103247
0.059511
0.010160
-0.036777
-0.092101
-0.119101
-0.143835
-0.144386
-0.134425
-0.108023
-0.088569
-0.035135
0.015739
0.062099
0.101588
0.132432
0.159155
0.151150
0.156474
0.137041
0.098023
0.054536
0.003423
-0.046263
-0.089895
-0.124735
-0.152305
-0.147998
-0.144815
-0.126404
-0.089322
-0.050932
-0.004096
0.042974
0.099220
0.124254
0.141925
0.154060
0.142124
0.125430
0.092096
0.053253
0.002887
-0.033647
-0.080820
-0.118054
-0.135901
-0.142528
-0.126949
-0.101583
-0.074199
-0.038938
0.003575
0.057068
0.107443
0.125465
0.157643
0.156673
0.150644
0.125068
0.104481
0.061090
0.025447
-0.024372
-0.067397
-0.115749
-0.140271
-0.143366
-0.135112
-0.115404
-0.090371
-0.041724
0.010874
0.054358
0.089887
0.123765
0.147381
0.148472
0.129497
0.120829
0.087081
0.041713
-0.003197
-0.063123
-0.101789
-0.132575
-0.154279
-0.167990
-0.157387
-0.124213
-0.089914
-0.045202
-0.019540
0.035358
0.086116
0.124551
0.150084
0.148846
0.140984
0.113043
0.093695
0.060162
0.009518
-0.042542
-0.090025
-0.114262
-0.148590
-0.150276
-0.148049
-0.108972
-0.077271
-0.032490
-0.001962
0.037347
0.081559
0.101599
0.134309
0.140546
0.141851
0.114364
0.069983
0.044185
0.011205
-0.046392
-0.099095
-0.132842
-0.166887
-0.173640
-0.167476
-0.149048
-0.112348
-0.062654
-0.015267
0.031544
0.077223
0.104195
0.129082
0.151150
0.135137
0.083145
0.049742
0.020235
-0.028559
-0.075152
-0.115198
-0.158443
-0.177659
-0.179254
-0.182039
-0.155067
-0.118967
-0.071482
-0.023839
0.039068
0.073984
0.123730
0.149335
0.147838
0.126610
0.098112
0.058913
0.021707
-0.013765
-0.051457
-0.091786
-0.135835
-0.165522
-0.167733
-0.160079
-0.132707
-0.092392
-0.062118
-0.013354
0.035960
0.067205
0.100637
0.113604
0.127256
0.121615
0.092597
0.066193
0.024047
-0.023819
-0.078946
-0.131988
-0.159083
-0.183212
-0.182991
-0.170669
-0.149144
-0.126736
-0.081135
-0.035126
0.002446
0.051923
0.088832
0.105022
0.119389
0.106350
0.095766
0.085377
0.039353
-0.025301
-0.078434
-0.111830
-0.141712
-0.161484
-0.168055
-0.166139
-0.141258
-0.121137
-0.073370
-0.028734
0.025778
0.059396
0.096257
0.118929
0.129954
0.127342
0.096255
0.057037
0.029493
-0.015668
-0.063854
-0.107404
-0.138346
-0.163986
-0.181610
-0.177802
-0.152068
-0.112705
-0.058685
-0.014172
0.031712
0.065168
0.102280
0.135677
0.149977
0.137188
0.104955
0.078695
0.027845
-0.007608
-0.047867
-0.095786
-0.124516
-0.135400
-0.149365
-0.141342
-0.118952
-0.081057
-0.038912
0.007074
0.047816
0.094614
0.133576
0.162814
0.163784
0.153121
0.126299
0.092909
0.044843
0.003324
-0.050304
-0.089814
-0.117518
-0.129132
-0.140494
-0.127124
-0.095658
-0.070124
-0.026280
0.021553
0.085585
0.132916
0.169634
0.177482
0.190178
0.181601
0.164477
0.130204
0.077585
0.022803
-0.013017
-0.066090
-0.107403
-0.142707
-0.159022
-0.152983
-0.124570
-0.099639
-0.048411
-0.017775
0.022418
0.060697
0.122268
0.141757
0.142529
0.132242
0.096931
0.062882
0.008479
-0.035405
-0.074369
-0.104278
-0.145904
-0.163755
-0.173298
-0.174874
-0.149941
-0.114279
-0.067240
-0.016158
0.029708
0.070912
0.099073
0.111050
0.118731
0.109143
0.088886
0.059773
0.012819
-0.037836
-0.088365
-0.130898
-0.175472
-0.191165
-0.190787
-0.194161
-0.163057
-0.144023
-0.108144
-0.051570
-0.000813
0.029296
0.065940
0.088402
0.100087
0.093693
0.078714
0.036447
-0.007657
-0.048739
-0.090513
-0.132810
-0.184945
-0.207464
-0.223238
-0.224646
-0.193468
-0.145569
-0.104207
-0.047611
0.007244
0.057036
0.083595
0.091581
0.104950
0.096817
0.056028
0.018595
-0.009281
-0.054834
-0.098531
-0.149791
-0.176806
-0.181634
-0.199903
-0.193350
-0.181007
-0.142795
-0.096331
-0.046361
0.005604
0.042403
0.088608
0.102653
0.104519
0.098957
0.063649
0.036115
-0.003326
-0.067885
-0.106228
-0.143356
-0.187908
-0.212369
-0.220655
-0.210477
-0.188342
-0.148094
-0.105257
-0.050939
0.008311
0.063221
0.119072
0.142390
0.145294
0.155248
0.156131
0.134123
0.109441
0.073490
0.040683
0.003630
-0.020176
-0.000705
0.020623
0.043151
0.080318
0.128630
0.207722
0.302329
0.389338
0.454459
0.533279
0.591976
0.638573
0.654119
0.668053
0.669252
0.670847
0.621150
0.620710
0.610986
0.613824
0.600722
0.576571
0.570213
0.581624
0.595467
0.625149
0.664444
0.678042
0.661309
0.622040
0.564795
0.508671
0.449214
0.394899
0.311169
0.224979
0.125967
0.063015
0.009027
-0.042844
-0.059041
-0.077167
-0.081989
-0.067139
-0.047315
0.008082
0.046763
0.071103
0.093467
0.149469
0.174238
0.181546
0.162337
0.129153
0.107971
0.060101
0.002842
-0.043668
-0.075713
-0.120829
-0.157430
-0.157551
-0.150285
-0.126206
-0.114436
-0.079042
-0.034905
0.018605
0.058252
0.115300
0.137490
0.138928
0.139211
0.120854
0.076876
0.028733
-0.019679
-0.067780
-0.100325
-0.144191
-0.173151
-0.186906
-0.177572
-0.148953
-0.115230
-0.070218
-0.019140
0.028468
0.066534
0.113748
0.133410
0.133423
0.135148
0.108928
0.066353
0.030816
-0.033469
-0.092231
-0.136819
-0.165467
-0.189854
-0.189858
-0.178888
-0.150638
-0.118189
-0.077975
-0.028347
0.039002
0.082395
0.104526
0.124311
0.137635
0.133604
0.126652
0.087546
0.033122
-0.012441
-0.050729
-0.081936
-0.126254
-0.151038
-0.154572
-0.143771
-0.115073
-0.088642
-0.053176
-0.002076
0.059307
0.103713
0.140892
0.165054
0.179176
0.176466
0.163517
0.128530
0.068906
0.011395
-0.040011
-0.092039
-0.121138
-0.138898
-0.149752
-0.142047
-0.110848
-0.064304
-0.024999
0.028269
0.075118
0.124741
0.163704
0.198552
0.207870
0.199015
0.172597
0.133476
0.094565
0.043859
-0.002371
-0.041366
-0.061302
-0.094690
-0.105400
-0.080937
-0.061539
-0.039036
0.009923
0.081462
0.125371
0.171393
0.205663
0.235429
0.232923
0.222082
0.193970
0.167448
0.138528
0.100859
0.054510
0.003221
-0.032099
-0.051341
-0.054818
-0.049241
-0.015819
0.008453
0.049166
0.105262
0.152642
0.195310
0.226061
0.255802
0.251222
0.245788
0.211577
0.174769
0.135309
0.093242
0.036718
-0.000368
-0.041249
-0.062910
-0.058481
-0.058708
-0.030078
-0.002154
0.034826
0.078702
0.130244
0.177875
0.214716
0.235242
0.240281
0.238413
0.225575
0.193559
0.153395
0.097158
0.039281
-0.016497
-0.052806
-0.071733
-0.071484
-0.061522
-0.034941
-0.006301
0.033334
0.079527
0.124479
0.165896
0.193321
0.213209
0.219026
0.205554
0.173781
0.134698
0.099780
0.046617
-0.001275
-0.045489
-0.092221
-0.104552
-0.121656
-0.121333
-0.093611
-0.067002
-0.023466
0.021867
0.076474
0.138444
0.164949
0.161020
0.156052
0.163104
0.128961
0.089082
0.039976
0.000099
-0.052100
-0.104285
-0.144032
-0.169383
-0.171143
-0.164480
-0.134831
-0.104869
-0.074713
-0.032953
0.037083
0.087717
0.120375
0.130912
0.131882
0.126747
0.110017
0.075635
0.029979
-0.025922
-0.070114
-0.126263
-0.153006
-0.172117
-0.169068
-0.164350
-0.142165
-0.107161
-0.060033
-0.007672
0.030243
0.064096
0.099760
0.132070
0.133633
0.126586
0.088820
0.042044
0.003458
-0.048437
-0.090095
-0.120679
-0.152837
-0.178590
-0.188855
-0.186184
-0.162891
-0.130260
-0.077696
-0.040305
0.014429
0.056957
0.096979
0.130896
0.133274
0.125697
0.090321
0.056408
-0.001367
-0.046402
-0.088892
-0.135416
-0.164955
-0.179999
-0.187042
-0.177772
-0.155027
-0.122933
-0.081944
-0.033768
0.023203
0.056258
0.113570
0.130870
0.136016
0.139704
0.112959
0.071667
0.033601
-0.008631
-0.049058
-0.088566
-0.125330
-0.152586
-0.169223
-0.176362
-0.154838
-0.109130
-0.067174
-0.029012
0.020572
0.060934
0.120219
0.148273
0.142843
0.126567
0.101388
0.052229
0.011086
-0.033302
-0.079083
-0.120936
-0.153233
-0.169391
-0.177450
-0.164055
-0.139691
-0.107994
-0.068210
-0.019806
0.033371
0.074700
0.106228
0.127815
0.138547
0.134421
0.110382
0.087743
0.042444
-0.002788
-0.051848
-0.107094
-0.148408
-0.179429
-0.177037
-0.165853
-0.141164
-0.099917
-0.068832
-0.018607
0.031704
0.071645
0.111824
0.137384
0.147512
0.132176
0.101150
0.058199
0.022313
-0.013525
-0.063642
-0.120043
-0.150860
-0.182134
-0.185419
-0.181624
-0.154584
-0.119283
-0.080816
-0.032173
0.017017
0.061629
0.093960
0.105224
0.119111
0.115735
0.094665
0.043809
0.003336
-0.027549
-0.080769
-0.116798
-0.145446
-0.162954
-0.184153
-0.183391
-0.154932
-0.115208
-0.075986
-0.024160
0.018436
0.052041
0.078452
0.113490
0.119620
0.104174
0.089639
0.064137
0.014716
-0.032334
-0.078402
-0.122182
-0.162934
-0.180478
-0.189627
-0.175579
-0.147308
-0.116557
-0.090887
-0.038083
0.005557
0.062759
0.088590
0.115215
0.125462
0.112919
0.087160
0.048862
0.006847
-0.041613
-0.090448
-0.133876
-0.158263
-0.184203
-0.199017
-0.195087
-0.168451
-0.141896
-0.091713
-0.045608
0.012358
0.050421
0.090983
0.111073
0.126584
0.106109
0.084030
0.035216
-0.001645
-0.051296
-0.094754
-0.139524
-0.160045
-0.189320
-0.192783
-0.177747
-0.150205
-0.118651
-0.064424
-0.027320
0.014840
0.061680
0.092903
0.107986
0.111493
0.104712
0.084513
0.035914
-0.012669
-0.055261
-0.101416
-0.139670
-0.166196
-0.182069
-0.191057
-0.181461
-0.163639
-0.136032
-0.100722
-0.058353
-0.011445
0.044121
0.071045
0.106067
0.113589
0.102487
0.073780
0.041380
-0.000956
-0.053304
-0.108917
-0.145414
-0.178508
-0.194961
-0.209217
-0.187631
-0.173214
-0.139265
-0.083557
-0.040519
0.011158
0.053571
0.082599
0.110257
0.109712
0.116541
0.093628
0.060111
0.006100
-0.044946
-0.088042
-0.142431
-0.164132
-0.171353
-0.167595
-0.179026
-0.158714
-0.115681
-0.062918
-0.023853
0.028855
0.077391
0.113480
0.134707
0.150787
0.139661
0.112522
0.073260
0.033760
-0.011197
-0.058946
-0.110219
-0.139943
-0.147068
-0.156116
-0.145196
-0.127753
-0.100837
-0.060170
-0.031487
0.021783
0.081344
0.115131
0.142810
0.148950
0.134818
0.121102
0.084812
0.035012
-0.003570
-0.047732
-0.095240
-0.122815
-0.133334
-0.133965
-0.116297
-0.102080
-0.073691
-0.034442
0.009756
0.062258
0.108100
0.141897
0.168409
0.168567
0.152885
0.114923
0.092425
0.052005
-0.007955
-0.057230
-0.101320
-0.131274
-0.157522
-0.169988
-0.162282
-0.136961
-0.105212
-0.060878
-0.023420
0.022946
0.067246
0.102398
0.124918
0.132157
0.113019
0.104198
0.064337
0.016573
-0.050601
-0.102154
-0.163121
-0.181380
-0.200272
-0.216397
-0.197987
-0.176473
-0.132545
-0.093308
-0.057251
-0.006833
0.031505
0.057643
0.093242
0.119222
0.101674
0.069689
0.041475
-0.010701
-0.078825
-0.123527
-0.170427
-0.196210
-0.220413
-0.230299
-0.225642
-0.194688
-0.154271
-0.117896
-0.056377
0.004349
0.055669
0.076603
0.092669
0.099087
0.098051
0.071104
0.024257
-0.030991
-0.073145
-0.114300
-0.161797
-0.194678
-0.224569
-0.221124
-0.205798
-0.183965
-0.163306
-0.112239
-0.054410
-0.017412
0.012183
0.048272
0.074473
0.088394
0.077375
0.056412
0.020128
-0.029910
-0.078529
-0.126742
-0.171190
-0.211359
-0.229442
-0.239535
-0.219986
-0.187537
-0.145287
-0.099349
-0.051323
-0.009287
0.032034
0.065089
0.074704
0.078259
0.088285
0.061795
0.040539
0.000146
-0.046211
-0.089097
-0.143403
-0.180379
-0.194728
-0.180896
-0.161892
-0.126529
-0.082681
-0.035321
0.030881
0.098275
0.158159
0.194373
0.223828
0.235655
0.248235
0.238805
0.227152
0.209667
0.201640
0.186432
0.167584
0.159820
0.159418
0.188315
0.223391
0.279154
0.333214
0.407816
0.509979
0.596246
0.672344
0.734581
0.803353
0.839551
0.843974
0.814040
0.783401
0.739848
0.672536
0.605795
0.552966
0.480746
0.405349
0.314859
0.261978
0.240001
0.221314
0.224230
0.228303
0.230833
0.227677
0.224639
0.234350
0.229987
0.206024
0.168391
0.125113
0.077273
0.033106
-0.018948
-0.065923
-0.107782
-0.137867
-0.149461
-0.150638
-0.132635
-0.099414
-0.058361
-0.001117
0.035417
0.074271
0.097869
0.124413
0.129256
0.118832
0.093890
0.061584
0.031620
-0.021322
-0.055867
-0.100988
-0.156296
-0.174357
-0.177305
-0.185021
-0.155727
-0.120706
-0.084130
-0.038575
0.020863
0.069355
0.104622
0.122168
0.130387
0.119679
0.104710
0.074269
0.018491
-0.027307
-0.063572
-0.102510
-0.138162
-0.154696
-0.165717
-0.154805
-0.135611
-0.103066
-0.052457
-0.008561
0.030328
0.071991
0.103439
0.124952
0.131299
0.129924
0.110177
0.069918
0.017256
-0.034784
-0.076268
-0.122233
-0.153855
-0.173980
-0.174875
-0.166541
-0.129588
-0.119986
-0.069695
-0.024045
0.025037
0.071483
0.117737
0.138277
0.152501
0.149300
0.125493
0.083638
0.038243
-0.009259
-0.046723
-0.084283
-0.114429
-0.127640
-0.135627
-0.124896
-0.099249
-0.063104
-0.015327
0.029074
0.074323
0.116483
0.157399
0.168915
0.177907
0.176308
0.149552
0.119447
0.079136
0.033740
-0.013330
-0.069147
-0.095640
-0.113570
-0.125780
-0.112230
-0.092010
-0.054085
0.003551
0.044094
0.089741
0.136607
0.180220
0.209993
0.202924
0.190945
0.182666
0.145231
0.085668
0.047145
0.005957
-0.018510
-0.040194
-0.058832
-0.065344
-0.055405
-0.036004
-0.000440
0.044892
0.091106
0.143499
0.197908
0.233661
0.262050
0.265036
0.269445
0.240041
0.192428
0.143746
0.098261
0.060708
0.015767
-0.015281
-0.026079
-0.037412
-0.032496
-0.009871
0.020291
0.067475
0.116022
0.168360
0.205276
0.223157
0.247183
0.257682
0.262955
0.236213
0.184170
0.131318
0.083387
0.048476
0.002690
-0.033158
-0.042454
-0.039808
-0.020446
-0.010212
0.014931
0.053950
0.084943
0.133094
0.186222
0.218741
0.237223
0.238136
0.235233
0.200748
0.174133
0.124960
0.073574
0.026942
-0.021782
-0.068663
-0.083911
-0.079368
-0.073277
-0.053284
-0.023871
0.027122
0.065995
0.113329
0.153730
0.182628
0.201540
0.199041
0.189106
0.162967
0.120747
0.081248
0.032210
-0.023303
-0.071776
-0.108353
-0.116712
-0.125094
-0.122338
-0.114195
-0.089238
-0.042466
0.012034
0.067722
0.105580
0.131251
0.146726
0.148153
0.155349
0.127171
0.094663
0.039852
-0.005968
-0.050471
-0.089193
-0.118047
-0.138295
-0.154275
-0.152015
-0.131397
-0.097573
-0.052838
-0.012426
0.044681
0.093887
0.127009
0.156466
0.159422
0.150087
0.122041
0.085806
0.035218
-0.019237
-0.063701
-0.105448
-0.149019
-0.168190
-0.164872
-0.149239
-0.131778
-0.105774
-0.067185
-0.019553
0.013452
0.061962
0.097957
0.124567
0.129624
0.120863
0.097710
0.053776
0.006785
-0.036202
-0.090614
-0.127862
-0.155621
-0.183618
-0.189114
-0.179018
-0.154542
-0.109998
-0.070111
-0.027317
0.022945
0.053129
0.100241
0.135434
0.135746
0.133255
0.114566
0.071428
0.035170
-0.008148
-0.060214
-0.103785
-0.138742
-0.155866
-0.155181
-0.140800
-0.116946
-0.083802
-0.039441
-0.004888
0.044104
0.091578
0.131057
0.146986
0.153398
0.139891
0.109909
0.063446
0.026170
-0.020907
-0.063628
-0.096045
-0.139057
-0.167231
-0.171266
-0.165381
-0.139512
-0.108553
-0.061713
-0.006981
0.036920
0.076683
0.113366
0.137934
0.150449
0.137117
0.111258
0.074638
0.024254
-0.020515
-0.061955
-0.098246
-0.139451
-0.155462
-0.157769
-0.147797
-0.126939
-0.077943
-0.027405
0.011640
0.062678
0.102728
0.138606
0.168146
0.165246
0.154981
0.126333
0.088788
0.046668
0.001386
-0.050825
-0.099193
-0.130749
-0.160243
-0.176506
-0.168713
-0.131584
-0.086493
-0.045648
-0.006888
0.031146
0.081387
0.118876
0.123644
0.130208
0.120772
0.102166
0.076463
0.027529
-0.021965
-0.077014
-0.124262
-0.154382
-0.171896
-0.181596
-0.170636
-0.144098
-0.113803
-0.065751
-0.018160
0.033920
0.078898
0.112476
0.133960
0.141609
0.142135
0.131959
0.084141
0.028457
-0.009610
-0.055518
-0.109970
-0.144803
-0.158121
-0.153737
-0.141642
-0.118078
-0.099754
-0.051151
-0.003625
0.040477
0.071893
0.105891
0.129959
0.141702
0.128707
0.105225
0.066210
0.025008
-0.032430
-0.072797
-0.118458
-0.150722
-0.165250
-0.165860
-0.157414
-0.145890
-0.122065
-0.083872
-0.025961
0.024132
0.059386
0.096072
0.119113
0.117747
0.118067
0.097308
0.060971
0.023548
-0.027116
-0.079669
-0.120846
-0.144381
-0.168279
-0.189067
-0.169936
-0.137924
-0.095319
-0.052135
-0.013331
0.033429
0.075770
0.111336
0.129579
0.141536
0.132648
0.119775
0.075369
0.025067
-0.015939
-0.062095
-0.119159
-0.164133
-0.171121
-0.164146
-0.154040
-0.145542
-0.118797
-0.064146
-0.024017
0.027083
0.066040
0.103125
0.113505
0.131269
0.109970
0.084801
0.054806
0.025586
-0.037518
-0.092700
-0.134657
-0.167731
-0.187162
-0.176985
-0.166975
-0.151223
-0.121826
-0.073543
-0.029568
0.028281
0.069015
0.094518
0.110269
0.133629
0.124814
0.110123
0.077987
0.026132
-0.029362
-0.074877
-0.104501
-0.128630
-0.170299
-0.181303
-0.170176
-0.142393
-0.106452
-0.068031
-0.023828
0.029354
0.066829
0.109435
0.132663
0.135331
0.127127
0.103591
0.070464
0.028690
-0.016062
-0.062993
-0.108199
-0.139488
-0.161376
-0.161618
-0.149504
-0.120568
-0.079955
-0.049838
-0.008222
0.047089
0.096392
0.128925
0.159522
0.169906
0.159540
0.147865
0.105183
0.052338
0.007720
-0.038661
-0.076010
-0.110060
-0.130003
-0.156451
-0.147193
-0.119199
-0.073479
-0.019449
0.024293
0.078550
0.112201
0.145668
0.167567
0.172408
0.155872
0.142616
0.105586
0.065385
0.015581
-0.021506
-0.083381
-0.117224
-0.135440
-0.143666
-0.139173
-0.100825
-0.056355
-0.020206
0.030639
0.072368
0.101218
0.140136
0.149057
0.147179
0.144838
0.133039
0.088037
0.046007
0.003534
-0.055821
-0.092644
-0.137971
-0.154401
-0.156987
-0.144729
-0.119266
-0.090731
-0.042976
0.002854
0.053805
0.094055
0.116572
0.139257
0.152064
0.142893
0.118182
0.082152
0.029446
-0.024745
-0.075625
-0.122215
-0.154272
-0.167466
-0.180932
-0.166601
-0.150422
-0.136288
-0.096300
-0.052916
0.000771
0.051797
0.090014
0.111443
0.102893
0.102535
0.079739
0.038328
-0.008056
-0.044163
-0.098412
-0.157514
-0.190292
-0.209933
-0.209941
-0.203607
-0.183907
-0.141905
-0.102949
-0.046244
0.006092
0.041534
0.079875
0.098764
0.097936
0.095422
0.068318
0.034291
-0.007646
-0.045396
-0.076366
-0.118387
-0.156655
-0.189877
-0.192324
-0.189065
-0.165018
-0.130382
-0.086079
-0.038943
0.016755
0.064996
0.098066
0.104104
0.101795
0.085252
0.062436
0.028796
-0.014345
-0.072274
-0.124564
-0.156846
-0.191705
-0.211285
-0.213834
-0.204505
-0.182205
-0.142963
-0.102248
-0.056943
-0.013598
0.037507
0.061781
0.079916
0.093932
0.086927
0.078732
0.044743
0.001565
-0.035023
-0.075586
-0.101582
-0.119696
-0.123197
-0.105785
-0.084254
-0.045073
0.006911
0.061021
0.108570
0.186649
0.261642
0.302221
0.345736
0.385207
0.396702
0.402403
0.397184
0.402410
0.374573
0.353019
0.341892
0.336230
0.331841
0.361573
0.406845
0.468357
0.543503
0.631752
0.707548
0.787581
0.832737
0.864334
0.873805
0.881777
0.856951
0.801674
0.737364
0.652375
0.557647
0.431214
0.327550
0.226316
0.155480
0.103951
0.066932
0.046823
0.043829
0.062805
0.092242
0.141552
0.168945
0.208052
0.220440
0.221571
0.200244
0.175851
0.138124
0.094327
0.048208
-0.005327
-0.052230
-0.094227
-0.115109
-0.124695
-0.113345
-0.091549
-0.062919
-0.022270
0.019006
0.070019
0.112195
0.131124
0.137255
0.137987
0.128328
0.112138
0.070062
0.031141
-0.021044
-0.063998
-0.106815
-0.147036
-0.174097
-0.187479
-0.177757
-0.157471
-0.122013
-0.085882
-0.032993
0.019574
0.065077
0.102598
0.128495
0.127089
0.117807
0.101850
0.070177
0.039866
-0.008510
-0.067028
-0.114534
-0.154708
-0.169667
-0.160027
-0.149655
-0.140662
-0.099235
-0.053932
-0.001169
0.053454
0.090971
0.120183
0.147813
0.157462
0.149838
0.124624
0.087328
0.040076
-0.008433
-0.054368
-0.099398
-0.126689
-0.134021
-0.129743
-0.127870
-0.116131
-0.083982
-0.046451
0.004198
0.049824
0.091820
0.116999
0.139078
0.145893
0.138458
0.121917
0.088967
0.047173
0.000047
-0.048608
-0.081988
-0.112472
-0.134491
-0.136794
-0.129116
-0.105156
-0.058115
-0.017692
0.025801
0.077333
0.126333
0.167922
0.193483
0.190705
0.184263
0.171526
0.146013
0.103095
0.049954
0.006899
-0.033070
-0.059791
-0.089087
-0.086451
-0.074777
-0.054938
-0.012292
0.031746
0.084147
0.123051
0.166780
0.210598
0.220849
0.220480
0.216071
0.197391
0.171253
0.124509
0.077717
0.024539
-0.017599
-0.048068
-0.061369
-0.057550
-0.053738
-0.030895
0.006671
0.047088
0.089557
0.134308
0.180675
0.226250
0.246362
0.249703
0.239258
0.219816
0.188812
0.148023
0.105652
0.059688
0.017915
-0.013251
-0.031161
-0.028728
-0.026869
-0.007986
0.038526
0.085472
0.139849
0.189443
0.226255
0.266486
0.286090
0.283419
0.267234
0.229395
0.198209
0.152676
0.112913
0.066466
0.012957
-0.036457
-0.048442
-0.072381
-0.070040
-0.046213
-0.004493
0.039748
0.085022
0.150347
0.193428
0.218085
0.223294
0.218985
0.230436
0.213203
0.158088
0.105878
0.055664
0.014552
-0.029329
-0.062559
-0.083791
-0.093212
-0.081391
-0.063028
-0.029202
0.015760
0.059278
0.118454
0.161300
0.190388
0.196737
0.202320
0.191118
0.172227
0.122181
0.084343
0.042085
0.002835
-0.050906
-0.082605
-0.102956
-0.108909
-0.112523
-0.105960
-0.078636
-0.026020
0.022364
0.060614
0.104922
0.139328
0.151344
0.158506
0.152635
0.125199
0.090340
0.042967
-0.005925
-0.068970
-0.118516
-0.150018
-0.160338
-0.172508
-0.161084
-0.128495
-0.089344
-0.055020
-0.009005
0.027753
0.073227
0.108432
0.117040
0.132645
0.142015
0.121228
0.081155
0.033167
-0.029995
-0.069933
-0.106578
-0.135221
-0.154490
-0.166437
-0.152274
-0.117048
-0.079416
-0.041618
0.008451
0.057979
0.090152
0.113781
0.126651
0.133993
0.126038
0.095926
0.062849
0.024178
-0.010207
-0.052260
-0.112855
-0.154615
-0.173359
-0.177802
-0.169997
-0.140399
-0.107759
-0.053373
-0.013236
0.039555
0.071231
0.105407
0.131605
0.139786
0.130050
0.115544
0.090828
0.034696
-0.004664
-0.062361
-0.106074
-0.135214
-0.154832
-0.157827
-0.144860
-0.126273
-0.089655
-0.044632
0.002842
0.054635
0.095067
0.141027
0.166910
0.164653
0.151423
0.142076
0.106228
0.052682
0.006312
-0.028402
-0.079094
-0.125890
-0.154571
-0.153341
-0.155333
-0.125807
-0.091008
-0.042516
0.006875
0.050470
0.088194
0.111024
0.120188
0.135712
0.128099
0.110728
0.069555
0.022444
-0.029808
-0.063580
-0.099712
-0.132797
-0.145763
-0.152179
-0.137585
-0.122372
-0.084717
-0.039849
0.017314
0.056904
0.092083
0.128803
0.147163
0.151548
0.147996
0.115868
0.073391
0.038344
-0.012685
-0.063992
-0.104063
-0.136781
-0.152936
-0.164832
-0.149877
-0.120188
-0.075278
-0.027419
0.016457
0.058765
0.109049
0.135587
0.142720
0.154516
0.146719
0.109061
0.071630
0.028705
-0.016179
-0.057758
-0.110328
-0.156289
-0.166771
-0.168971
-0.164127
-0.145283
-0.111070
-0.064579
-0.014419
0.023285
0.067557
0.115367
0.131285
0.133159
0.135982
0.107658
0.080599
0.027478
-0.028920
-0.067512
-0.114521
-0.144686
-0.167288
-0.173978
-0.164215
-0.123244
-0.085459
-0.039196
0.014617
0.062078
0.096543
0.116874
0.127902
0.144372
0.131638
0.107781
0.087619
0.039308
-0.021884
-0.072044
-0.113276
-0.149487
-0.160667
-0.152797
-0.154558
-0.149883
-0.121125
-0.075516
-0.036285
0.015286
0.061638
0.089024
0.106334
0.114421
0.112572
0.084586
0.051649
0.020084
-0.035011
-0.075023
-0.120083
-0.146709
-0.171407
-0.177915
-0.166924
-0.149716
-0.116563
-0.069072
-0.013730
0.037426
0.076074
0.101450
0.123313
0.131851
0.128130
0.089710
0.058622
0.025432
-0.019312
-0.069814
-0.105530
-0.135884
-0.159055
-0.173273
-0.174813
-0.149935
-0.096406
-0.039021
0.008982
0.042208
0.088052
0.111975
0.129229
0.136603
0.123601
0.086862
0.049074
0.006428
-0.052992
-0.096746
-0.139237
-0.169863
-0.181174
-0.180161
-0.179513
-0.154224
-0.116154
-0.081316
-0.028775
0.017328
0.051768
0.086288
0.109912
0.123800
0.113227
0.097840
0.062367
0.024121
-0.020764
-0.065829
-0.109840
-0.138593
-0.156629
-0.170080
-0.162472
-0.125698
-0.088065
-0.031839
0.020907
0.065573
0.112096
0.133379
0.151873
0.170461
0.180319
0.153840
0.117332
0.076287
0.014744
-0.034358
-0.081928
-0.111601
-0.124803
-0.141166
-0.133215
-0.101532
-0.072757
-0.034762
0.021474
0.066028
0.106290
0.136851
0.151137
0.159745
0.149199
0.108581
0.083622
0.040039
0.000564
-0.035815
-0.069087
-0.091913
-0.108265
-0.109367
-0.116478
-0.099672
-0.062666
-0.017855
0.037959
0.092046
0.130626
0.171534
0.189296
0.194207
0.179466
0.158327
0.118194
0.071066
0.012631
-0.044364
-0.094897
